1535
1579
1609
1637
1624
1623
1615
1638
1616
1630
1649
1697
1803
1919
2014
2064
2069
2010
1977
1875
1827
1777
1712
1658
1585
1535
1515
1509
1532
1531
1520
1509
1502
1534
1605
1637
1609
1598
1602
1597
1535
1554
1594
1638
1637
1617
1630
1669
1744
1831
1925
2005
2045
2023
1989
1935
1839
1840
1793
1714
1660
1626
1617
1617
1605
1629
1616
1603
1577
1555
1568
1535
1535
1527
1520
1559
1563
1559
1580
1605
1650
1646
1645
1643
1643
1632
1630
1723
1868
1991
2094
2117
2090
2019
1936
1857
1786
1725
1694
1643
1612
1582
1535
1509
1515
1506
1491
1503
1535
1535
1535
1534
1526
1535
1535
1589
1600
1618
1630
1611
1610
1607
1623
1623
1618
1627
1696
1823
1966
2095
2150
2135
2102
2044
1965
1920
1858
1795
1724
1673
1599
1556
1556
1580
1579
1568
1557
1557
1553
1555
1564
1583
1584
1574
1589
1611
1645
1655
1643
1647
1645
1651
1669
1714
1853
2019
2147
2173
2154
2103
2032
1936
1891
1845
1777
1725
1661
1616
1582
1602
1600
1609
1592
1589
1559
1566
1532
1535
1561
1604
1626
1599
1600
1583
1593
1584
1647
1742
1872
2005
2057
2043
2015
1951
1872
1795
1728
1667
1585
1488
1426
1414
1443
1467
1503
1532
1520
1511
1503
1488
1491
1491
1478
1433
1422
1431
1456
1520
1563
1584
1566
1610
1707
1867
2006
2115
2147
2146
2071
1973
1889
1814
1747
1662
1535
1479
1430
1425
1431
1456
1486
1527
1558
1565
1535
1535
1535
1589
1609
1573
1569
1584
1597
1598
1607
1634
1616
1635
1615
1634
1651
1723
1840
1987
2198
2298
2319
2278
2215
2113
2037
1958
1843
1730
1617
1491
1410
1393
1410
1437
1422
1404
1376
1348
1360
1333
1344
1379
1426
1430
1441
1454
1461
1488
1503
1489
1502
1530
1535
1555
1568
1582
1586
1628
1741
1926
2087
2204
2217
2159
2081
1977
1857
1783
1701
1590
1508
1445
1387
1358
1362
1392
1424
1399
1422
1419
1401
1418
1409
1407
1395
1411
1424
1472
1463
1450
1457
1468
1488
1583
1743
1901
2010
2039
2009
1931
1817
1741
1680
1617
1509
1415
1341
1318
1337
1361
1360
1387
1424
1424
1402
1393
1392
1401
1392
1397
1417
1453
1456
1475
1479
1482
1561
1663
1823
1966
2078
2091
2064
2005
1927
1840
1775
1691
1606
1495
1407
1383
1366
1392
1420
1403
1377
1376
1407
1456
1477
1451
1441
1419
1430
1433
1473
1457
1482
1511
1487
1475
1479
1488
1498
1529
1616
1747
1875
2009
2046
2062
2012
1971
1879
1813
1774
1721
1655
1587
1535
1514
1489
1485
1463
1456
1469
1428
1479
1454
1431
1434
1444
1450
1465
1457
1475
1495
1515
1503
1527
1569
1578
1575
1569
1500
1451
1426
1434
1454
1509
1615
1775
1914
2003
2064
2065
2023
1968
1906
1834
1776
1757
1684
1619
1578
1501
1509
1525
1556
1535
1513
1488
1475
1457
1446
1458
1473
1491
1506
1523
1533
1559
1535
1568
1581
1589
1584
1565
1580
1584
1594
1614
1643
1678
1693
1779
1921
2030
2113
2128
2080
2031
1933
1873
1787
1719
1670
1629
1563
1514
1468
1451
1457
1472
1489
1535
1645
1699
1712
1771
1809
1787
1726
1655
1621
1605
1569
1501
1456
1445
1447
1459
1533
1638
1739
1814
1871
1898
1904
1887
1793
1728
1716
1712
1680
1629
1600
1584
1611
1632
1654
1614
1599
1553
1535
1531
1520
1495
1488
1507
1526
1599
1589
1602
1593
1591
1580
1605
1699
1802
1897
1939
1955
1952
1915
1891
1822
1780
1719
1658
1602
1566
1532
1535
1531
1535
1554
1535
1557
1535
1535
1535
1535
1501
1503
1535
1600
1597
1581
1584
1573
1571
1591
1601
1633
1714
1857
2007
2083
2095
2057
1988
1927
1882
1817
1760
1686
1622
1581
1535
1508
1516
1502
1488
1472
1461
1465
1472
1491
1502
1475
1506
1535
1574
1573
1570
1555
1567
1574
1583
1603
1599
1597
1645
1719
1822
1918
2017
2016
1997
1965
1915
1878
1803
1738
1657
1612
1578
1559
1520
1498
1489
1488
1499
1502
1532
1568
1585
1596
1568
1535
1565
1535
1580
1598
1597
1611
1607
1585
1591
1618
1633
1671
1741
1813
1879
1922
1943
1921
1902
1851
1793
1755
1712
1648
1621
1584
1559
1562
1565
1575
1573
1585
1585
1641
1639
1637
1607
1576
1535
1535
1559
1562
1627
1627
1611
1591
1616
1680
1767
1860
1936
1968
1996
2033
2090
2096
2066
1969
1872
1776
1712
1643
1640
1616
1607
1598
1563
1530
1472
1424
1408
1424
1451
1459
1463
1529
1577
1563
1558
1582
1568
1569
1557
1565
1573
1589
1635
1676
1741
1821
1918
1990
2006
2002
1994
1971
1946
1884
1844
1783
1718
1681
1655
1654
1627
1648
1644
1646
1617
1609
1587
1606
1614
1584
1584
1600
1601
1616
1617
1626
1601
1616
1625
1682
1699
1730
1703
1701
1680
1714
1781
1863
1986
2033
2063
2014
1955
1885
1854
1808
1776
1715
1674
1627
1611
1617
1599
1599
1584
1568
1575
1556
1535
1535
1556
1535
1564
1563
1526
1520
1535
1603
1620
1648
1633
1639
1657
1735
1840
1922
1979
1986
1943
1906
1851
1824
1793
1730
1712
1642
1616
1602
1584
1594
1616
1595
1592
1591
1615
1612
1613
1610
1609
1597
1636
1658
1679
1681
1669
1690
1680
1729
1793
1891
2007
2059
2054
2000
1922
1863
1826
1805
1760
1734
1685
1620
1595
1597
1605
1646
1686
1711
1694
1680
1600
1567
1535
1535
1570
1648
1685
1702
1695
1682
1680
1669
1660
1662
1645
1683
1809
1939
2085
2165
2160
2117
2057
1957
1935
1903
1883
1807
1745
1711
1702
1712
1676
1625
1588
1569
1553
1569
1535
1525
1535
1525
1534
1535
1522
1520
1520
1535
1525
1535
1535
1562
1590
1603
1590
1557
1563
1648
1802
1943
2040
2037
2017
1953
1862
1801
1741
1691
1635
1562
1530
1511
1520
1515
1507
1483
1489
1446
1434
1424
1418
1422
1447
1491
1535
1577
1560
1495
1441
1445
1456
1484
1520
1556
1565
1584
1607
1602
1613
1705
1810
1905
2000
2025
1988
1936
1866
1793
1709
1693
1616
1588
1520
1497
1483
1485
1483
1515
1495
1472
1456
1426
1415
1402
1404
1394
1412
1462
1483
1495
1509
1559
1581
1583
1584
1619
1727
1853
1922
1927
1872
1793
1703
1651
1602
1574
1505
1488
1463
1470
1468
1465
1472
1474
1471
1474
1459
1465
1472
1479
1472
1458
1472
1488
1535
1558
1535
1567
1584
1687
1809
1911
1950
1933
1899
1821
1776
1735
1700
1634
1561
1534
1502
1506
1514
1507
1535
1535
1534
1532
1535
1586
1593
1584
1562
1520
1499
1510
1518
1535
1569
1591
1617
1637
1705
1840
1949
2007
2011
1997
1987
1951
1903
1840
1791
1734
1654
1591
1535
1492
1467
1466
1474
1463
1469
1479
1473
1472
1461
1456
1455
1427
1405
1393
1393
1422
1494
1519
1564
1616
1646
1654
1744
1855
1978
2070
2090
2066
1993
1936
1872
1822
1743
1633
1507
1426
1388
1392
1393
1392
1424
1489
1510
1514
1504
1494
1487
1488
1520
1508
1510
1503
1535
1584
1577
1554
1574
1594
1615
1646
1691
1779
1903
1980
2026
2000
1968
1911
1840
1776
1712
1653
1581
1525
1500
1494
1520
1497
1481
1472
1489
1477
1469
1445
1439
1466
1493
1520
1535
1530
1535
1559
1600
1584
1616
1680
1778
1907
1958
1954
1927
1872
1831
1774
1737
1709
1648
1595
1568
1520
1491
1488
1479
1513
1575
1585
1584
1571
1535
1559
1568
1565
1563
1565
1569
1616
1618
1618
1613
1605
1643
1734
1824
1931
1979
1989
1963
1910
1855
1814
1777
1746
1663
1598
1535
1503
1524
1516
1513
1522
1554
1535
1533
1513
1498
1503
1520
1561
1599
1616
1625
1591
1591
1589
1605
1617
1627
1630
1627
1646
1667
1689
1710
1755
1833
1930
1999
2038
2034
2015
1997
1947
1902
1825
1792
1738
1680
1622
1587
1584
1589
1587
1595
1582
1555
1535
1535
1554
1555
1535
1553
1570
1568
1622
1621
1622
1634
1638
1619
1631
1638
1649
1680
1714
1798
1894
1963
2016
2017
1989
1947
1877
1846
1820
1755
1676
1609
1590
1601
1621
1616
1602
1606
1600
1599
1577
1535
1531
1535
1535
1535
1569
1575
1563
1552
1584
1574
1558
1601
1665
1728
1826
1911
1989
1983
1952
1891
1826
1782
1771
1744
1691
1623
1591
1535
1533
1566
1584
1577
1578
1535
1535
1535
1558
1529
1535
1534
1563
1577
1625
1626
1637
1653
1653
1654
1677
1679
1669
1669
1663
1741
1855
1954
2021
2039
2009
1952
1878
1825
1822
1791
1746
1680
1620
1600
1601
1595
1600
1569
1584
1605
1600
1595
1568
1560
1535
1568
1577
1600
1622
1646
1639
1624
1651
1655
1635
1639
1619
1648
1675
1683
1693
1692
1714
1798
1931
2004
2064
2025
1989
1911
1882
1840
1834
1811
1775
1710
1675
1646
1635
1652
1663
1649
1605
1585
1590
1586
1591
1578
1587
1614
1605
1619
1621
1654
1681
1687
1680
1690
1682
1699
1722
1779
1870
1939
2005
2041
2018
1968
1919
1882
1854
1819
1763
1735
1680
1648
1638
1642
1637
1650
1664
1653
1641
1634
1642
1671
1698
1695
1702
1685
1696
1703
1680
1682
1697
1718
1801
1891
1965
1989
1981
1949
1882
1842
1831
1803
1762
1717
1695
1692
1691
1705
1712
1722
1699
1687
1686
1692
1670
1680
1696
1691
1680
1675
1674
1675
1668
1679
1711
1763
1847
1939
2033
2082
2079
2032
2016
1984
1927
1897
1863
1782
1746
1717
1712
1701
1707
1719
1715
1711
1677
1680
1675
1679
1680
1687
1681
1682
1700
1745
1759
1755
1744
1743
1760
1819
1946
2098
2199
2284
2303
2256
2226
2208
2183
2128
2071
1987
1918
1863
1814
1794
1778
1757
1743
1712
1711
1673
1643
1635
1618
1590
1599
1601
1584
1586
1613
1625
1630
1614
1600
1582
1599
1622
1711
1853
2042
2217
2289
2269
2207
2125
2035
1944
1855
1743
1629
1510
1424
1382
1366
1374
1389
1373
1352
1328
1317
1313
1328
1307
1313
1313
1327
1360
1390
1373
1373
1366
1370
1395
1444
1599
1805
1984
2076
2039
1974
1875
1776
1684
1591
1498
1419
1351
1326
1339
1353
1387
1380
1392
1392
1383
1415
1449
1453
1451
1435
1414
1409
1403
1402
1423
1413
1409
1455
1584
1777
1937
2023
1979
1863
1753
1693
1659
1621
1535
1459
1373
1335
1346
1392
1424
1482
1479
1487
1471
1439
1422
1381
1377
1379
1381
1393
1395
1450
1482
1503
1505
1514
1517
1526
1593
1687
1856
2026
2079
2055
1955
1870
1790
1738
1687
1602
1518
1413
1339
1306
1310
1350
1420
1477
1483
1490
1469
1451
1457
1456
1478
1509
1505
1503
1497
1477
1497
1509
1515
1488
1470
1451
1421
1420
1458
1507
1519
1535
1554
1577
1638
1770
1905
2022
2034
1997
1903
1820
1779
1744
1718
1648
1574
1489
1475
1479
1467
1479
1510
1527
1513
1466
1437
1421
1427
1461
1474
1471
1501
1535
1559
1567
1586
1617
1631
1616
1625
1607
1625
1648
1658
1641
1633
1648
1667
1687
1732
1835
1969
2066
2054
2001
1937
1862
1808
1759
1726
1685
1629
1573
1505
1492
1475
1508
1493
1476
1495
1479
1483
1498
1493
1486
1511
1522
1535
1526
1535
1558
1591
1602
1591
1617
1677
1669
1687
1727
1824
1931
1993
1968
1904
1815
1786
1763
1762
1722
1680
1659
1639
1616
1600
1611
1611
1619
1646
1648
1606
1603
1585
1598
1614
1606
1616
1611
1639
1671
1683
1680
1648
1664
1658
1686
1709
1702
1691
1691
1698
1712
1744
1838
1918
2032
2057
2070
1995
1904
1855
1819
1803
1776
1746
1698
1671
1645
1647
1625
1611
1630
1633
1673
1669
1651
1631
1619
1619
1632
1623
1646
1647
1695
1712
1715
1721
1693
1698
1722
1740
1755
1744
1725
1749
1769
1782
1807
1894
1989
2079
2128
2078
2000
1927
1904
1881
1877
1846
1781
1744
1697
1667
1639
1641
1655
1643
1623
1613
1627
1605
1609
1620
1581
1566
1593
1648
1702
1744
1755
1769
1745
1738
1741
1743
1739
1776
1835
1918
1989
2027
1987
1947
1879
1846
1830
1824
1826
1763
1734
1690
1665
1648
1681
1659
1643
1638
1627
1631
1607
1619
1597
1589
1561
1571
1611
1622
1651
1636
1623
1638
1680
1754
1871
1955
1973
1963
1940
1897
1851
1818
1790
1775
1729
1711
1685
1693
1679
1681
1706
1716
1698
1694
1683
1682
1665
1659
1666
1659
1648
1657
1675
1731
1725
1689
1694
1691
1683
1722
1755
1871
1997
2082
2096
2090
2039
1986
1922
1922
1906
1878
1825
1772
1744
1737
1721
1719
1740
1739
1735
1731
1715
1717
1712
1739
1731
1729
1744
1753
1794
1791
1766
1747
1751
1764
1783
1758
1760
1766
1763
1776
1782
1858
2001
2159
2288
2308
2299
2244
2185
2117
2064
2003
1925
1831
1742
1662
1617
1605
1585
1589
1581
1535
1501
1472
1438
1450
1447
1455
1456
1439
1429
1419
1433
1433
1430
1424
1445
1443
1457
1506
1597
1733
1906
2005
2034
1998
1909
1839
1777
1737
1651
1595
1488
1407
1366
1363
1395
1390
1394
1377
1371
1351
1332
1348
1345
1343
1360
1409
1446
1459
1466
1472
1488
1499
1512
1558
1689
1833
1966
2033
2000
1915
1821
1764
1729
1659
1602
1519
1444
1397
1383
1392
1382
1394
1423
1392
1392
1381
1392
1431
1471
1473
1481
1470
1456
1469
1488
1515
1530
1535
1535
1535
1530
1535
1567
1638
1789
1947
2029
2032
1983
1917
1823
1780
1718
1664
1594
1494
1434
1398
1402
1391
1423
1426
1431
1395
1391
1378
1381
1385
1390
1454
1479
1499
1478
1495
1495
1499
1519
1505
1521
1529
1533
1535
1535
1535
1555
1567
1615
1724
1870
2003
2074
2090
2011
1901
1824
1770
1740
1702
1629
1535
1479
1456
1451
1453
1456
1462
1456
1449
1439
1425
1421
1437
1475
1483
1493
1497
1493
1532
1535
1535
1555
1535
1557
1595
1591
1602
1646
1746
1863
1967
1975
1948
1900
1815
1735
1684
1648
1612
1568
1509
1475
1498
1510
1520
1557
1561
1584
1586
1569
1575
1535
1571
1591
1596
1591
1596
1616
1597
1611
1606
1618
1693
1813
1922
2000
1994
1959
1853
1779
1761
1719
1685
1629
1593
1535
1585
1585
1606
1608
1585
1585
1568
1582
1584
1596
1596
1616
1647
1648
1635
1642
1676
1645
1655
1697
1780
1853
1961
2035
2039
2000
1941
1868
1822
1765
1716
1668
1594
1535
1503
1471
1471
1498
1535
1599
1621
1625
1624
1652
1689
1702
1686
1696
1690
1695
1712
1697
1712
1723
1728
1722
1715
1761
1867
1991
2112
2173
2142
2091
2019
1977
1921
1887
1870
1818
1744
1697
1647
1603
1591
1598
1598
1615
1607
1591
1583
1568
1565
1599
1613
1652
1680
1680
1680
1681
1693
1698
1712
1703
1706
1680
1679
1680
1675
1706
1692
1680
1706
1693
1714
1772
1915
2029
2113
2119
2096
2029
1947
1905
1851
1819
1744
1705
1651
1600
1584
1585
1583
1585
1583
1559
1535
1567
1609
1615
1611
1600
1610
1613
1639
1639
1661
1680
1660
1639
1633
1635
1655
1680
1749
1840
1949
2034
2086
2044
2011
1934
1878
1843
1808
1757
1712
1687
1685
1679
1682
1683
1699
1679
1664
1659
1643
1664
1658
1690
1680
1699
1698
1695
1696
1691
1699
1696
1697
1702
1764
1872
1966
2068
2102
2073
2023
1958
1890
1853
1823
1796
1723
1680
1655
1650
1687
1703
1710
1687
1670
1668
1659
1637
1661
1665
1713
1747
1775
1808
1824
1823
1813
1805
1776
1737
1748
1731
1724
1713
1701
1717
1734
1819
1914
2033
2139
2150
2112
2059
1972
1923
1901
1878
1813
1767
1707
1701
1666
1658
1667
1668
1662
1651
1648
1643
1653
1657
1650
1663
1669
1698
1712
1723
1723
1743
1734
1731
1757
1752
1778
1769
1769
1789
1789
1797
1900
2032
2143
2203
2207
2160
2122
2067
2021
1985
1935
1867
1770
1714
1671
1664
1669
1680
1686
1701
1675
1680
1648
1638
1618
1627
1618
1609
1633
1618
1629
1639
1626
1647
1647
1696
1803
1922
2032
2086
2094
2033
1984
1910
1855
1798
1740
1661
1599
1563
1523
1531
1535
1535
1535
1518
1487
1467
1475
1493
1510
1514
1511
1520
1571
1577
1574
1577
1598
1653
1778
1913
2018
2032
1989
1936
1859
1826
1786
1734
1684
1590
1515
1469
1487
1505
1511
1523
1530
1531
1555
1531
1532
1588
1617
1625
1616
1619
1621
1630
1630
1642
1653
1646
1664
1638
1664
1699
1787
1930
2083
2136
2122
2086
2005
1964
1919
1878
1827
1761
1663
1607
1555
1535
1567
1535
1559
1564
1565
1535
1583
1580
1606
1616
1621
1642
1632
1637
1638
1650
1666
1691
1680
1689
1683
1692
1712
1722
1710
1705
1725
1747
1857
1975
2128
2239
2256
2221
2163
2067
2015
1955
1921
1840
1761
1683
1621
1600
1556
1570
1591
1574
1535
1534
1526
1533
1518
1519
1520
1504
1513
1535
1535
1517
1518
1530
1535
1557
1555
1575
1599
1618
1616
1664
1765
1921
2045
2100
2081
2013
1938
1861
1781
1742
1684
1627
1584
1525
1515
1529
1525
1535
1535
1535
1519
1518
1525
1535
1554
1611
1600
1595
1600
1595
1587
1594
1585
1590
1623
1644
1703
1815
1951
2044
2047
1998
1936
1849
1801
1759
1709
1648
1602
1583
1535
1563
1565
1579
1583
1575
1557
1535
1535
1535
1574
1582
1578
1601
1648
1643
1649
1648
1633
1647
1664
1691
1759
1874
2019
2114
2138
2103
2010
1938
1893
1846
1815
1741
1685
1615
1583
1578
1586
1601
1591
1609
1586
1577
1535
1553
1535
1535
1535
1564
1602
1633
1634
1633
1627
1634
1643
1637
1642
1645
1657
1713
1853
1991
2131
2162
2122
2042
1951
1883
1847
1790
1731
1659
1600
1535
1524
1529
1535
1535
1532
1529
1518
1534
1520
1525
1523
1535
1610
1670
1687
1690
1680
1680
1658
1647
1618
1615
1638
1681
1695
1722
1817
1939
2045
2096
2065
2000
1899
1824
1793
1726
1709
1632
1563
1535
1510
1515
1535
1535
1524
1535
1535
1555
1565
1557
1581
1611
1627
1627
1645
1664
1696
1721
1733
1728
1707
1694
1712
1715
1808
1914
2039
2126
2121
2065
2009
1938
1890
1835
1792
1744
1697
1671
1641
1661
1667
1655
1641
1662
1648
1648
1648
1647
1642
1639
1615
1619
1629
1614
1618
1591
1586
1593
1600
1678
1753
1889
2005
2090
2105
2044
1967
1899
1844
1808
1750
1699
1661
1623
1622
1634
1639
1655
1634
1626
1613
1607
1600
1620
1603
1614
1601
1623
1619
1626
1617
1631
1630
1649
1658
1676
1671
1680
1705
1795
1945
2074
2151
2172
2113
2043
1936
1886
1856
1788
1715
1642
1585
1535
1535
1553
1565
1571
1584
1566
1535
1530
1535
1558
1600
1618
1609
1595
1604
1613
1611
1627
1641
1635
1647
1632
1637
1664
1680
1680
1700
1770
1901
2022
2128
2146
2097
2055
1965
1898
1872
1808
1776
1701
1626
1600
1577
1585
1599
1611
1616
1589
1581
1582
1555
1553
1564
1574
1581
1568
1576
1594
1605
1636
1643
1648
1675
1675
1687
1683
1687
1707
1743
1841
1963
2064
2117
2091
2030
1931
1868
1834
1772
1722
1678
1625
1598
1598
1599
1585
1600
1621
1614
1591
1571
1602
1595
1605
1626
1659
1665
1666
1664
1660
1654
1677
1676
1660
1675
1731
1831
1965
2035
2067
2016
1923
1844
1786
1776
1742
1690
1661
1623
1627
1652
1666
1697
1694
1680
1686
1666
1663
1648
1657
1658
1683
1660
1665
1661
1689
1679
1687
1696
1703
1730
1750
1744
1776
1861
2000
2113
2150
2155
2083
2007
1930
1871
1820
1808
1759
1699
1650
1623
1653
1637
1648
1637
1647
1630
1646
1647
1662
1691
1706
1671
1671
1680
1682
1685
1696
1695
1712
1711
1719
1722
1715
1730
1744
1763
1819
1943
2078
2152
2170
2138
2081
2013
1939
1901
1886
1846
1794
1743
1695
1680
1698
1679
1678
1676
1671
1658
1661
1651
1659
1668
1673
1674
1686
1668
1695
1722
1722
1712
1715
1735
1751
1764
1742
1744
1744
1771
1872
2005
2105
2183
2175
2137
2090
2021
1963
1931
1883
1846
1771
1730
1707
1686
1703
1685
1674
1668
1675
1648
1612
1609
1614
1603
1611
1616
1627
1680
1706
1729
1739
1744
1743
1723
1747
1843
1950
2055
2127
2145
2117
2041
1953
1920
1893
1840
1788
1712
1695
1680
1696
1690
1696
1680
1669
1661
1666
1617
1648
1646
1654
1649
1680
1698
1711
1691
1679
1676
1658
1741
1863
1981
2075
2114
2091
2032
1959
1916
1857
1825
1794
1726
1689
1657
1669
1665
1667
1662
1648
1642
1635
1613
1602
1613
1618
1630
1666
1687
1674
1667
1663
1683
1702
1718
1808
1941
2080
2174
2210
2182
2100
2032
1982
1950
1891
1826
1765
1709
1685
1682
1680
1680
1675
1661
1648
1635
1626
1616
1631
1648
1657
1686
1700
1707
1727
1730
1745
1749
1769
1779
1889
2064
2247
2423
2471
2432
2384
2331
2224
2164
2096
2007
1904
1808
1718
1662
1634
1642
1625
1598
1569
1535
1535
1525
1517
1511
1505
1510
1508
1516
1529
1535
1519
1529
1530
1504
1508
1630
1804
2032
2234
2288
2253
2138
2004
1913
1838
1750
1636
1523
1441
1383
1375
1409
1421
1424
1403
1385
1360
1350
1334
1342
1361
1356
1354
1357
1365
1419
1429
1443
1432
1482
1653
1883
2059
2107
2067
1966
1850
1776
1677
1600
1487
1393
1325
1302
1298
1328
1346
1358
1329
1309
1291
1287
1290
1297
1321
1368
1379
1382
1371
1360
1386
1394
1374
1375
1423
1519
1723
1955
2106
2097
2020
1904
1804
1728
1675
1589
1525
1424
1338
1291
1269
1312
1323
1366
1361
1378
1325
1358
1339
1357
1359
1365
1370
1398
1425
1436
1424
1450
1431
1453
1472
1488
1477
1483
1485
1535
1697
1904
2070
2134
2087
1991
1847
1755
1680
1614
1535
1477
1426
1367
1324
1310
1339
1353
1375
1367
1349
1358
1379
1403
1413
1418
1407
1404
1426
1437
1443
1447
1443
1443
1469
1488
1515
1515
1505
1513
1518
1535
1602
1733
1906
2047
2096
2035
1931
1808
1712
1650
1602
1559
1474
1391
1342
1331
1360
1378
1408
1442
1424
1429
1429
1422
1443
1443
1447
1459
1455
1447
1452
1456
1460
1475
1475
1473
1474
1494
1513
1527
1605
1739
1891
1968
1983
1930
1838
1726
1623
1554
1506
1488
1435
1408
1402
1408
1425
1450
1497
1502
1477
1477
1476
1458
1455
1467
1487
1511
1535
1569
1587
1600
1612
1575
1558
1594
1690
1819
1915
1946
1927
1874
1766
1693
1645
1601
1534
1503
1488
1484
1511
1562
1600
1589
1573
1559
1532
1529
1526
1535
1568
1572
1584
1587
1596
1627
1687
1707
1696
1762
1872
1984
2053
2043
1979
1874
1799
1727
1685
1644
1609
1573
1535
1520
1530
1577
1579
1572
1559
1535
1577
1566
1590
1584
1579
1586
1616
1674
1662
1685
1679
1654
1647
1690
1744
1879
2017
2100
2093
2047
1952
1877
1826
1793
1762
1702
1658
1635
1605
1595
1587
1616
1632
1645
1603
1589
1590
1591
1607
1597
1604
1598
1611
1651
1681
1668
1680
1689
1703
1711
1721
1729
1746
1830
1958
2073
2138
2102
2042
1969
1911
1867
1827
1785
1719
1653
1599
1584
1583
1569
1574
1575
1583
1557
1535
1535
1535
1535
1553
1535
1565
1582
1626
1633
1616
1607
1607
1617
1616
1623
1712
1868
1990
2069
2017
1962
1894
1814
1787
1741
1691
1616
1562
1511
1493
1504
1520
1557
1535
1581
1563
1590
1584
1616
1620
1616
1601
1611
1611
1623
1637
1630
1639
1712
1824
1946
1970
1946
1899
1808
1756
1712
1683
1644
1584
1562
1535
1565
1576
1598
1591
1606
1584
1583
1584
1585
1584
1583
1602
1662
1678
1674
1662
1662
1680
1686
1755
1840
1936
1984
1983
1919
1840
1797
1745
1721
1671
1651
1627
1594
1599
1616
1610
1607
1617
1600
1585
1610
1600
1603
1610
1613
1634
1623
1620
1622
1626
1639
1681
1711
1776
1878
1947
1987
1957
1904
1824
1776
1726
1695
1664
1646
1629
1625
1651
1670
1678
1664
1643
1619
1622
1623
1648
1695
1683
1651
1687
1681
1668
1701
1728
1792
1900
1959
1995
1975
1926
1833
1798
1760
1744
1713
1674
1658
1641
1677
1678
1712
1726
1684
1681
1645
1641
1664
1686
1685
1682
1689
1684
1680
1715
1815
1946
2039
2078
2027
2000
1957
1904
1863
1815
1771
1742
1696
1699
1682
1709
1693
1680
1674
1680
1664
1666
1663
1666
1673
1653
1683
1680
1667
1666
1713
1794
1906
2007
2095
2091
2058
2021
1963
1910
1863
1835
1783
1709
1680
1662
1658
1654
1660
1675
1658
1644
1632
1632
1638
1645
1638
1657
1674
1663
1672
1708
1710
1711
1697
1711
1719
1776
1876
2010
2123
2166
2166
2146
2103
2033
1987
1963
1899
1833
1773
1730
1703
1690
1701
1701
1705
1692
1677
1669
1657
1627
1646
1646
1659
1647
1652
1661
1665
1671
1680
1686
1670
1670
1693
1696
1679
1680
1683
1681
1735
1811
1936
2096
2199
2235
2224
2139
2065
1988
1957
1907
1818
1727
1647
1598
1585
1581
1563
1535
1530
1531
1534
1520
1530
1511
1509
1516
1509
1517
1533
1583
1587
1593
1597
1606
1606
1614
1615
1603
1607
1616
1681
1811
1937
2061
2077
2034
1961
1878
1803
1776
1723
1664
1613
1571
1535
1535
1565
1584
1571
1535
1554
1520
1535
1535
1535
1566
1561
1591
1590
1603
1587
1626
1610
1607
1618
1664
1807
1915
2015
2046
2000
1934
1842
1813
1754
1715
1665
1610
1593
1578
1595
1616
1629
1614
1609
1597
1584
1575
1590
1596
1606
1616
1615
1647
1666
1649
1641
1653
1676
1663
1702
1799
1940
2075
2146
2121
2031
1947
1885
1840
1808
1749
1693
1645
1617
1589
1582
1578
1601
1595
1575
1578
1568
1535
1584
1581
1583
1584
1575
1587
1575
1589
1601
1644
1655
1665
1661
1664
1667
1702
1722
1766
1878
2022
2143
2169
2141
2076
1979
1947
1887
1839
1788
1711
1657
1631
1586
1575
1577
1591
1602
1600
1616
1598
1594
1584
1586
1597
1616
1612
1618
1630
1637
1649
1658
1650
1679
1693
1712
1726
1722
1710
1700
1703
1711
1767
1901
2064
2155
2160
2128
2055
1969
1904
1865
1825
1763
1727
1663
1631
1587
1586
1607
1613
1607
1613
1575
1584
1591
1594
1606
1600
1616
1619
1660
1659
1648
1663
1668
1687
1707
1693
1696
1685
1695
1713
1805
1934
2053
2098
2081
2028
1931
1872
1815
1805
1773
1727
1675
1648
1669
1680
1681
1686
1649
1635
1649
1629
1633
1638
1655
1690
1674
1680
1676
1687
1707
1714
1735
1719
1715
1735
1791
1898
2007
2094
2109
2087
2023
1927
1890
1863
1814
1790
1715
1685
1661
1663
1671
1687
1702
1701
1691
1665
1648
1665
1663
1686
1673
1699
1685
1700
1711
1744
1745
1758
1751
1751
1774
1775
1759
1746
1814
1923
2069
2168
2177
2139
2071
1984
1967
1919
1881
1843
1771
1725
1702
1669
1666
1678
1701
1680
1675
1677
1661
1679
1682
1680
1703
1696
1743
1761
1777
1787
1803
1792
1776
1781
1777
1788
1769
1773
1761
1793
1779
1822
1909
2064
2179
2224
2193
2139
2059
1969
1939
1887
1840
1798
1735
1691
1682
1677
1699
1682
1683
1674
1675
1659
1657
1650
1665
1643
1663
1663
1686
1718
1727
1731
1719
1712
1712
1722
1719
1747
1782
1906
2009
2096
2111
2099
2018
1935
1883
1833
1799
1767
1735
1696
1680
1683
1712
1728
1744
1706
1681
1675
1682
1675
1683
1671
1698
1723
1742
1718
1715
1712
1725
1715
1744
1801
1915
2032
2097
2114
2083
2029
1947
1887
1873
1843
1771
1744
1717
1719
1734
1712
1725
1715
1713
1701
1690
1694
1683
1681
1698
1687
1685
1695
1693
1693
1684
1686
1699
1769
1897
2016
2112
2160
2157
2084
2036
1946
1911
1907
1872
1808
1753
1728
1689
1687
1691
1703
1669
1678
1681
1650
1647
1654
1665
1670
1655
1660
1683
1732
1738
1744
1730
1713
1715
1768
1863
2000
2117
2155
2145
2096
2047
1986
1951
1932
1872
1813
1744
1712
1669
1673
1683
1695
1692
1686
1685
1680
1669
1669
1683
1696
1691
1703
1727
1744
1744
1744
1744
1745
1765
1775
1808
1958
2137
2321
2414
2417
2365
2309
2261
2237
2176
2094
1987
1919
1840
1785
1771
1748
1744
1728
1689
1649
1615
1591
1563
1535
1535
1509
1513
1520
1505
1499
1485
1485
1525
1690
1898
2067
2157
2155
2096
1978
1862
1778
1694
1621
1476
1387
1345
1301
1318
1326
1323
1307
1296
1293
1282
1274
1263
1302
1299
1314
1295
1310
1311
1321
1346
1430
1616
1817
1984
2043
1984
1867
1719
1617
1526
1460
1360
1303
1267
1277
1307
1349
1361
1343
1353
1339
1343
1343
1361
1398
1393
1395
1390
1391
1401
1411
1467
1605
1790
1948
1990
1953
1859
1725
1626
1556
1448
1382
1328
1328
1358
1371
1456
1456
1438
1421
1367
1359
1358
1361
1392
1424
1434
1419
1408
1434
1455
1574
1774
1972
2064
2047
1964
1838
1744
1653
1583
1523
1439
1392
1344
1375
1353
1392
1426
1449
1447
1399
1413
1407
1424
1430
1422
1437
1431
1415
1430
1458
1470
1493
1648
1849
2032
2133
2106
2000
1888
1779
1715
1657
1583
1494
1405
1367
1333
1328
1357
1377
1401
1405
1403
1394
1415
1429
1449
1459
1435
1434
1462
1465
1487
1488
1513
1533
1534
1553
1553
1553
1568
1591
1648
1819
2009
2135
2150
2090
1956
1837
1744
1675
1619
1553
1466
1392
1378
1359
1390
1399
1398
1418
1456
1462
1485
1488
1495
1518
1509
1515
1520
1521
1535
1581
1575
1579
1584
1581
1599
1602
1616
1622
1615
1621
1627
1668
1778
1923
2064
2125
2094
1997
1870
1771
1711
1661
1619
1563
1504
1474
1461
1473
1469
1491
1480
1509
1513
1508
1513
1498
1502
1511
1531
1567
1600
1600
1616
1604
1623
1634
1648
1645
1653
1723
1822
1965
2066
2069
2005
1903
1840
1759
1707
1695
1635
1587
1557
1553
1574
1604
1600
1606
1584
1566
1586
1597
1599
1611
1630
1639
1667
1676
1690
1694
1680
1687
1703
1709
1738
1799
1931
2047
2115
2113
2063
1967
1873
1808
1790
1726
1686
1607
1600
1611
1609
1621
1627
1641
1635
1613
1610
1607
1626
1647
1682
1682
1667
1680
1683
1710
1728
1698
1665
1699
1723
1701
1733
1702
1747
1754
1835
1936
2085
2166
2183
2124
2034
1936
1866
1840
1802
1773
1712
1670
1631
1619
1632
1669
1678
1666
1646
1661
1665
1654
1666
1677
1685
1703
1725
1729
1718
1713
1730
1738
1745
1741
1740
1746
1751
1757
1785
1789
1773
1783
1778
1807
1872
2006
2114
2175
2160
2109
2028
1936
1871
1813
1786
1753
1715
1677
1669
1665
1690
1693
1708
1714
1703
1682
1690
1683
1699
1706
1722
1747
1758
1747
1751
1765
1771
1759
1780
1758
1758
1757
1783
1872
2000
2092
2137
2109
2046
1952
1890
1862
1840
1817
1776
1735
1725
1747
1763
1790
1803
1777
1735
1699
1713
1718
1727
1728
1723
1743
1749
1776
1779
1774
1772
1744
1777
1844
1954
2075
2157
2128
2089
2021
1958
1909
1855
1834
1767
1765
1776
1790
1793
1795
1787
1776
1771
1761
1743
1744
1762
1771
1765
1757
1773
1791
1787
1777
1755
1771
1756
1835
1952
2071
2172
2210
2189
2133
2057
1989
1941
1904
1879
1851
1799
1749
1724
1723
1730
1767
1733
1725
1719
1714
1705
1709
1693
1712
1690
1702
1714
1719
1723
1738
1739
1738
1711
1711
1725
1776
1897
2033
2179
2191
2186
2112
2060
1991
1963
1920
1859
1803
1743
1704
1679
1667
1677
1673
1690
1687
1670
1648
1635
1630
1621
1633
1649
1648
1638
1648
1655
1655
1686
1682
1694
1691
1712
1727
1725
1711
1717
1719
1802
1931
2085
2160
2176
2127
2075
1984
1921
1869
1817
1799
1754
1693
1635
1630
1643
1675
1666
1657
1658
1637
1637
1641
1635
1649
1665
1654
1661
1673
1662
1680
1681
1696
1733
1731
1714
1726
1787
1926
2047
2127
2162
2108
2031
1951
1900
1855
1803
1755
1712
1680
1682
1693
1712
1703
1697
1686
1680
1665
1663
1674
1666
1674
1678
1668
1689
1698
1702
1698
1731
1755
1757
1759
1744
1757
1745
1755
1818
1950
2099
2195
2215
2178
2119
2026
1971
1936
1904
1843
1780
1739
1712
1680
1680
1683
1678
1680
1680
1652
1621
1616
1627
1631
1630
1639
1648
1649
1653
1680
1657
1683
1666
1694
1689
1727
1747
1750
1726
1721
1727
1746
1841
1971
2123
2195
2214
2164
2083
2011
1969
1936
1885
1840
1767
1729
1687
1685
1668
1685
1663
1663
1661
1618
1606
1603
1610
1617
1627
1616
1617
1620
1653
1693
1685
1679
1679
1685
1678
1679
1691
1750
1874
2039
2151
2198
2161
2123
2005
1936
1888
1844
1815
1733
1690
1654
1659
1671
1690
1684
1676
1641
1606
1634
1628
1621
1651
1643
1654
1657
1692
1687
1680
1679
1693
1689
1714
1808
1946
2086
2160
2165
2117
2028
1958
1883
1830
1778
1718
1681
1649
1638
1671
1687
1696
1675
1650
1623
1616
1616
1610
1605
1614
1601
1628
1621
1623
1627
1617
1634
1682
1770
1903
2069
2193
2237
2219
2145
2054
1979
1929
1899
1842
1754
1682
1646
1616
1635
1639
1652
1638
1632
1617
1611
1586
1599
1575
1591
1603
1573
1584
1599
1642
1643
1647
1639
1642
1635
1647
1712
1858
2047
2197
2255
2251
2178
2087
2005
1965
1951
1889
1794
1699
1644
1599
1596
1594
1599
1575
1559
1558
1525
1535
1532
1530
1535
1558
1535
1589
1614
1594
1599
1603
1605
1600
1600
1611
1680
1781
1951
2141
2225
2227
2169
2093
1989
1942
1911
1842
1769
1678
1615
1568
1535
1562
1573
1590
1584
1533
1519
1527
1526
1535
1535
1534
1535
1535
1557
1606
1637
1613
1596
1602
1688
1831
2007
2129
2160
2129
2066
1976
1904
1840
1771
1698
1614
1558
1535
1535
1566
1584
1600
1574
1558
1558
1535
1535
1565
1584
1602
1623
1620
1625
1616
1612
1619
1634
1710
1862
2060
2169
2217
2176
2117
2033
1975
1913
1845
1771
1680
1601
1568
1583
1569
1598
1603
1590
1572
1564
1563
1565
1568
1581
1590
1590
1604
1650
1648
1664
1650
1658
1668
1680
1677
1705
1824
2031
2195
2279
2313
2254
2165
2096
2003
1959
1890
1811
1697
1625
1569
1535
1535
1569
1555
1558
1568
1533
1534
1535
1527
1562
1574
1578
1603
1614
1616
1617
1627
1631
1643
1648
1660
1653
1669
1687
1798
1947
2124
2240
2288
2249
2189
2108
2021
1969
1904
1849
1744
1648
1600
1565
1573
1595
1584
1583
1570
1577
1571
1535
1535
1556
1570
1583
1578
1562
1584
1617
1649
1659
1675
1663
1668
1701
1694
1712
1807
1955
2141
2237
2261
2182
2083
2000
1947
1903
1830
1760
1685
1648
1617
1634
1638
1648
1648
1648
1620
1594
1589
1609
1627
1610
1602
1617
1613
1655
1667
1668
1674
1680
1664
1691
1745
1883
2045
2193
2235
2221
2122
2020
1941
1895
1845
1783
1724
1677
1647
1653
1673
1683
1687
1665
1643
1634
1629
1640
1660
1646
1642
1662
1680
1710
1709
1703
1706
1714
1709
1722
1775
1889
2069
2211
2293
2282
2226
2122
2058
1967
1926
1862
1794
1723
1659
1635
1617
1631
1648
1665
1666
1645
1642
1611
1615
1626
1636
1647
1669
1690
1705
1713
1715
1741
1743
1732
1718
1742
1744
1809
1985
2225
2448
2589
2608
2526
2453
2351
2286
2226
2127
2014
1900
1814
1750
1723
1689
1682
1690
1683
1645
1602
1569
1554
1558
1535
1520
1515
1531
1534
1553
1533
1535
1535
1561
1557
1535
1593
1762
2025
2279
2410
2422
2315
2160
2000
1890
1762
1665
1517
1399
1312
1264
1255
1294
1280
1281
1282
1254
1222
1204
1200
1214
1227
1269
1296
1279
1291
1307
1337
1309
1296
1413
1644
1877
2069
2133
2065
1946
1786
1639
1535
1445
1349
1266
1206
1197
1239
1321
1383
1378
1367
1333
1327
1329
1337
1335
1345
1376
1381
1388
1378
1374
1409
1518
1746
1995
2197
2240
2174
2021
1850
1705
1611
1502
1403
1323
1237
1233
1268
1322
1393
1392
1382
1370
1328
1346
1370
1406
1413
1440
1442
1461
1457
1451
1442
1487
1602
1857
2127
2299
2310
2206
2066
1923
1808
1703
1616
1511
1397
1265
1211
1188
1209
1267
1331
1343
1341
1330
1319
1333
1344
1339
1351
1382
1401
1430
1452
1463
1488
1472
1466
1481
1485
1506
1584
1787
2075
2309
2379
2327
2206
2023
1885
1769
1661
1535
1411
1296
1211
1182
1174
1222
1264
1312
1329
1330
1328
1354
1342
1328
1344
1361
1392
1408
1424
1427
1430
1440
1461
1494
1506
1520
1532
1523
1535
1531
1584
1683
1927
2153
2288
2288
2187
2026
1861
1739
1670
1571
1486
1371
1270
1200
1190
1245
1297
1341
1350
1358
1358
1387
1373
1363
1363
1394
1410
1439
1443
1472
1475
1499
1531
1566
1579
1570
1535
1565
1618
1781
1989
2147
2218
2181
2107
1968
1845
1771
1698
1634
1534
1454
1394
1377
1426
1456
1520
1510
1479
1444
1420
1459
1519
1535
1521
1517
1558
1577
1600
1607
1584
1581
1587
1621
1670
1821
1982
2114
2147
2095
2017
1887
1803
1751
1721
1643
1599
1535
1533
1535
1571
1609
1607
1575
1568
1562
1583
1616
1639
1637
1642
1664
1666
1697
1669
1680
1669
1675
1690
1744
1872
2062
2178
2213
2192
2113
1987
1918
1856
1805
1746
1687
1603
1563
1535
1597
1613
1619
1616
1631
1616
1600
1621
1617
1625
1659
1680
1691
1713
1709
1709
1714
1717
1726
1735
1740
1719
1738
1808
1973
2128
2255
2288
2255
2182
2097
2003
1941
1889
1838
1757
1698
1648
1616
1598
1605
1596
1593
1595
1595
1611
1600
1597
1612
1611
1615
1610
1637
1651
1680
1692
1696
1683
1707
1722
1735
1743
1716
1713
1724
1762
1869
2039
2201
2282
2273
2211
2123
2017
1924
1878
1854
1778
1693
1621
1594
1577
1589
1596
1586
1584
1584
1567
1580
1588
1603
1620
1618
1646
1623
1648
1680
1686
1691
1699
1706
1719
1717
1713
1772
1897
2061
2175
2202
2152
2047
1942
1883
1831
1771
1729
1679
1621
1618
1630
1674
1686
1657
1669
1649
1648
1631
1632
1659
1680
1711
1719
1725
1712
1711
1712
1727
1747
1761
1799
1925
2090
2192
2215
2170
2087
1981
1921
1909
1847
1778
1725
1702
1675
1682
1692
1706
1705
1690
1682
1671
1694
1691
1705
1712
1723
1725
1714
1735
1729
1776
1766
1779
1787
1782
1789
1827
1921
2080
2231
2320
2311
2240
2141
2047
1986
1941
1892
1860
1776
1718
1695
1697
1699
1718
1698
1683
1692
1671
1670
1674
1680
1682
1680
1722
1735
1744
1737
1726
1735
1747
1756
1765
1751
1707
1791
1887
2081
2215
2266
2225
2163
2097
2018
1940
1904
1843
1782
1712
1661
1637
1668
1683
1682
1681
1687
1678
1649
1651
1658
1666
1680
1680
1703
1709
1729
1744
1751
1744
1760
1745
1779
1904
2045
2161
2208
2186
2126
1997
1923
1873
1822
1771
1712
1685
1673
1696
1733
1745
1766
1733
1669
1666
1682
1675
1689
1681
1684
1712
1737
1744
1749
1729
1739
1741
1789
1890
2043
2180
2258
2239
2161
2043
1985
1919
1874
1822
1767
1738
1686
1680
1711
1719
1717
1712
1702
1669
1677
1670
1680
1703
1698
1714
1722
1714
1750
1762
1737
1730
1717
1726
1783
1876
2020
2187
2277
2295
2261
2160
2073
1979
1931
1907
1833
1751
1697
1679
1661
1658
1663
1667
1648
1643
1646
1639
1630
1625
1639
1646
1654
1663
1699
1718
1727
1715
1712
1728
1728
1754
1824
1971
2129
2267
2298
2253
2165
2053
1971
1951
1889
1824
1742
1689
1655
1684
1680
1682
1677
1678
1664
1656
1677
1682
1663
1650
1651
1657
1680
1682
1690
1687
1708
1687
1717
1829
1969
2126
2217
2234
2189
2077
1995
1926
1871
1814
1747
1712
1675
1687
1696
1681
1699
1694
1665
1646
1616
1615
1635
1648
1645
1648
1650
1695
1735
1733
1715
1712
1715
1771
1899
2096
2247
2305
2305
2208
2079
1993
1921
1894
1821
1744
1691
1647
1634
1636
1615
1614
1611
1606
1613
1632
1633
1632
1667
1693
1712
1700
1697
1703
1705
1712
1712
1733
1714
1711
1712
1760
1858
2029
2216
2337
2363
2314
2219
2113
2060
2000
1962
1847
1786
1715
1665
1643
1635
1622
1616
1611
1578
1559
1565
1559
1570
1613
1635
1699
1698
1700
1712
1720
1743
1743
1744
1711
1664
1638
1622
1743
1931
2127
2252
2286
2256
2192
2111
2009
1945
1891
1810
1740
1697
1659
1665
1648
1669
1646
1642
1595
1584
1565
1581
1575
1602
1598
1600
1585
1599
1601
1606
1639
1645
1667
1664
1776
1952
2170
2325
2375
2335
2243
2172
2096
2015
1957
1876
1804
1755
1715
1712
1718
1713
1711
1703
1677
1659
1664
1648
1665
1666
1658
1661
1662
1741
1745
1761
1759
1753
1776
1783
1874
2102
2406
2698
2845
2843
2719
2544
2384
2254
2133
1971
1811
1683
1599
1555
1525
1479
1431
1401
1362
1310
1251
1251
1243
1230
1219
1221
1219
1243
1303
1306
1311
1311
1331
1310
1313
1301
1447
1729
2015
2198
2221
2064
1858
1667
1488
1371
1281
1201
1154
1134
1164
1168
1162
1159
1135
1095
1072
1035
1006
1003
1023
1096
1136
1172
1213
1216
1247
1248
1249
1273
1275
1269
1279
1317
1418
1615
1872
2047
2091
1951
1766
1581
1431
1306
1229
1170
1152
1178
1248
1322
1358
1356
1313
1287
1254
1238
1267
1257
1269
1261
1277
1309
1291
1303
1286
1277
1269
1285
1322
1355
1406
1533
1723
1897
1970
1929
1778
1641
1515
1403
1342
1287
1255
1271
1307
1330
1349
1377
1361
1326
1254
1200
1174
1167
1173
1181
1214
1253
1291
1295
1268
1264
1283
1278
1277
1359
1491
1681
1872
1935
1926
1879
1804
1702
1605
1533
1463
1456
1445
1485
1515
1585
1613
1618
1616
1594
1577
1517
1507
1503
1527
1520
1507
1508
1535
1526
1518
1566
1686
1821
1963
1995
1972
1898
1791
1677
1616
1535
1486
1439
1431
1458
1489
1519
1500
1477
1482
1494
1495
1493
1474
1455
1446
1435
1456
1483
1523
1595
1723
1873
1998
2062
2021
1951
1839
1722
1631
1566
1488
1446
1399
1390
1392
1418
1445
1425
1424
1407
1407
1390
1396
1398
1405
1386
1411
1399
1438
1535
1703
1853
1925
1935
1922
1851
1758
1679
1603
1517
1443
1389
1327
1303
1298
1311
1342
1338
1335
1334
1346
1365
1375
1377
1390
1380
1393
1415
1422
1503
1659
1806
1926
1926
1883
1807
1726
1653
1594
1520
1434
1347
1322
1316
1323
1329
1374
1393
1442
1440
1458
1456
1453
1442
1461
1503
1520
1535
1535
1557
1584
1584
1579
1559
1581
1584
1630
1732
1850
1978
2056
2057
1999
1931
1874
1791
1750
1693
1602
1505
1459
1447
1457
1503
1493
1490
1482
1470
1486
1463
1453
1473
1488
1489
1505
1508
1535
1569
1606
1608
1609
1578
1573
1585
1620
1652
1678
1755
1770
1812
1923
2119
2277
2351
2320
2277
2204
2137
2096
2094
2032
1962
1872
1790
1714
1680
1648
1665
1738
1855
1892
1818
1731
1658
1610
1535
1491
1483
1487
1535
1615
1674
1712
1729
1743
1774
1807
1799
1772
1766
1751
1758
1765
1818
1927
2074
2194
2261
2224
2159
2071
1987
1915
1840
1794
1722
1664
1642
1627
1653
1670
1669
1659
1629
1614
1611
1584
1584
1598
1619
1642
1653
1654
1648
1638
1626
1645
1648
1648
1659
1712
1819
1968
2062
2115
2096
2064
1973
1907
1872
1840
1794
1740
1666
1614
1585
1568
1581
1586
1600
1590
1595
1579
1601
1598
1602
1607
1593
1606
1615
1626
1630
1615
1605
1589
1600
1614
1627
1669
1679
1687
1719
1840
2027
2155
2225
2197
2126
2016
1939
1894
1831
1775
1708
1611
1535
1498
1470
1475
1514
1535
1565
1535
1535
1519
1520
1526
1535
1535
1561
1578
1612
1616
1618
1648
1649
1665
1659
1679
1692
1733
1719
1757
1754
1780
1808
1897
2034
2171
2240
2240
2179
2071
1968
1904
1854
1797
1728
1652
1609
1535
1517
1515
1507
1520
1515
1555
1585
1589
1596
1579
1630
1658
1664
1637
1678
1682
1681
1661
1605
1570
1582
1614
1686
1719
1743
1754
1755
1767
1778
1808
1874
1975
2107
2223
2240
2210
2131
2001
1917
1875
1839
1813
1770
1702
1694
1666
1628
1626
1647
1627
1602
1555
1535
1535
1563
1575
1582
1584
1586
1600
1605
1646
1668
1687
1707
1713
1726
1709
1709
1702
1712
1690
1675
1712
1782
1911
2022
2085
2091
2014
1938
1890
1853
1815
1766
1727
1680
1642
1631
1623
1616
1616
1630
1599
1597
1605
1612
1611
1621
1629
1626
1643
1623
1642
1680
1695
1723
1699
1694
1709
1712
1732
1731
1808
1936
2071
2160
2180
2141
2064
1969
1904
1835
1814
1775
1729
1688
1659
1649
1665
1664
1670
1666
1646
1616
1618
1629
1613
1611
1635
1639
1648
1648
1650
1641
1648
1673
1665
1710
1713
1712
1719
1713
1766
1835
1975
2159
2251
2273
2214
2139
2023
1968
1920
1872
1822
1751
1705
1643
1643
1633
1648
1649
1633
1616
1596
1594
1605
1599
1620
1620
1614
1616
1615
1625
1666
1679
1699
1692
1693
1711
1716
1713
1717
1731
1723
1742
1787
1906
2064
2210
2277
2243
2158
2034
1955
1896
1850
1778
1726
1649
1613
1595
1611
1629
1646
1662
1650
1638
1649
1635
1627
1637
1643
1653
1666
1707
1713
1737
1724
1728
1715
1725
1713
1701
1698
1698
1707
1712
1712
1778
1913
2063
2162
2221
2201
2113
2009
1910
1854
1808
1775
1744
1710
1683
1674
1664
1680
1690
1671
1654
1645
1641
1645
1631
1635
1650
1648
1648
1663
1679
1712
1726
1733
1726
1750
1732
1744
1806
1931
2095
2212
2245
2230
2157
2065
1995
1946
1879
1827
1769
1722
1684
1690
1713
1727
1724
1727
1713
1679
1658
1655
1671
1664
1663
1665
1664
1684
1673
1667
1680
1702
1749
1787
1866
2015
2181
2287
2295
2231
2135
2077
1997
1941
1886
1810
1741
1675
1614
1600
1600
1606
1602
1589
1585
1590
1597
1595
1599
1584
1588
1616
1616
1626
1619
1619
1621
1623
1603
1616
1729
1887
2059
2196
2223
2160
2077
1969
1914
1849
1819
1782
1707
1639
1602
1570
1573
1590
1598
1598
1594
1587
1570
1535
1574
1594
1587
1582
1590
1634
1630
1612
1595
1607
1614
1601
1594
1588
1606
1643
1687
1742
1822
1999
2147
2249
2234
2183
2081
1993
1939
1885
1845
1781
1706
1649
1618
1616
1609
1607
1615
1615
1609
1610
1575
1601
1609
1637
1649
1643
1642
1649
1650
1641
1646
1667
1648
1666
1673
1680
1739
1906
2064
2135
2161
2105
2011
1933
1873
1821
1779
1709
1652
1618
1621
1633
1648
1655
1643
1643
1629
1616
1597
1604
1615
1620
1629
1607
1598
1611
1600
1620
1670
1696
1712
1795
1903
2043
2139
2181
2133
2098
1982
1904
1855
1805
1747
1696
1634
1599
1586
1601
1621
1649
1696
1680
1669
1614
1582
1583
1586
1580
1602
1607
1632
1666
1666
1655
1668
1677
1698
1712
1707
1751
1847
2009
2160
2211
2201
2123
2054
1975
1903
1869
1837
1792
1727
1682
1635
1632
1648
1652
1669
1658
1648
1634
1633
1619
1622
1601
1637
1670
1690
1689
1699
1678
1634
1616
1633
1623
1644
1700
1787
1931
2096
2177
2187
2129
2062
1961
1883
1841
1808
1777
1709
1669
1618
1599
1601
1592
1609
1635
1632
1614
1622
1619
1617
1616
1595
1616
1611
1621
1637
1675
1680
1695
1692
1705
1703
1731
1738
1758
1770
1794
1856
2002
2135
2244
2283
2231
2138
2032
1974
1907
1871
1840
1777
1738
1702
1683
1680
1670
1661
1658
1648
1627
1617
1611
1591
1591
1620
1602
1604
1606
1626
1674
1694
1710
1706
1715
1717
1729
1730
1739
1793
1890
2079
2245
2358
2384
2337
2240
2150
2089
2034
2000
1907
1865
1820
1826
1854
1821
1841
1840
1815
1803
1783
1761
1742
1726
1722
1745
1761
1799
1790
1772
1769
1754
1744
1727
1698
1718
1869
2112
2384
2608
2657
2559
2406
2202
2053
1894
1767
1622
1511
1445
1388
1374
1392
1392
1347
1308
1261
1243
1201
1168
1162
1149
1187
1205
1230
1250
1278
1264
1263
1264
1247
1270
1358
1595
1882
2133
2256
2166
1983
1750
1576
1432
1341
1282
1200
1172
1171
1197
1250
1312
1319
1282
1264
1225
1225
1216
1233
1226
1219
1229
1263
1283
1281
1289
1294
1297
1318
1339
1445
1701
1957
2109
2137
2058
1889
1709
1563
1454
1375
1318
1279
1247
1255
1298
1360
1393
1385
1356
1319
1292
1279
1277
1296
1311
1339
1344
1363
1392
1389
1398
1458
1650
1882
2060
2131
2045
1916
1729
1607
1511
1407
1342
1306
1309
1328
1369
1424
1431
1438
1415
1365
1359
1360
1385
1426
1421
1449
1445
1471
1477
1469
1524
1691
1904
2089
2139
2064
1932
1765
1633
1522
1436
1345
1257
1218
1216
1258
1311
1392
1405
1424
1404
1393
1386
1387
1404
1435
1446
1482
1492
1474
1481
1522
1667
1859
2059
2160
2133
2021
1873
1743
1598
1500
1399
1322
1227
1199
1181
1204
1210
1254
1253
1242
1250
1254
1283
1340
1360
1375
1399
1419
1435
1456
1470
1488
1481
1520
1650
1833
2061
2192
2187
2081
1909
1735
1646
1569
1493
1392
1302
1277
1251
1262
1280
1328
1371
1390
1410
1442
1438
1437
1450
1502
1506
1535
1535
1584
1607
1620
1635
1651
1661
1686
1701
1734
1863
2018
2179
2238
2206
2105
1975
1872
1797
1762
1709
1620
1535
1494
1488
1483
1480
1489
1502
1507
1503
1493
1491
1508
1514
1572
1575
1569
1575
1593
1613
1630
1654
1667
1680
1678
1706
1715
1799
1947
2077
2112
2107
2011
1890
1799
1732
1712
1653
1601
1559
1530
1554
1558
1605
1641
1616
1609
1611
1609
1636
1631
1658
1659
1664
1680
1682
1660
1670
1667
1637
1666
1763
1897
2009
2064
2064
1979
1909
1850
1827
1801
1751
1704
1654
1636
1647
1653
1696
1702
1693
1680
1666
1648
1650
1650
1663
1662
1695
1717
1722
1733
1722
1712
1718
1807
1938
2078
2154
2138
2093
2011
1913
1867
1799
1783
1728
1666
1629
1605
1617
1621
1630
1629
1641
1623
1633
1631
1637
1617
1628
1630
1654
1683
1709
1722
1722
1716
1712
1760
1837
1998
2175
2277
2268
2192
2097
2005
1954
1886
1831
1765
1683
1641
1577
1598
1643
1621
1611
1575
1579
1594
1579
1570
1561
1613
1653
1661
1658
1652
1670
1665
1682
1662
1649
1599
1600
1663
1781
1943
2096
2174
2177
2111
2011
1927
1849
1809
1778
1739
1685
1650
1639
1651
1660
1675
1680
1683
1664
1659
1664
1649
1680
1713
1718
1714
1729
1744
1754
1762
1776
1789
1778
1789
1842
1936
2055
2147
2149
2105
2033
1936
1855
1805
1753
1701
1643
1635
1631
1637
1654
1649
1651
1627
1600
1581
1584
1593
1627
1654
1667
1657
1682
1706
1715
1741
1741
1786
1838
1952
2062
2114
2106
2038
1961
1894
1835
1819
1775
1761
1714
1730
1716
1730
1738
1773
1731
1731
1703
1688
1690
1694
1703
1722
1744
1753
1758
1757
1766
1761
1771
1855
1968
2102
2191
2180
2143
2087
2004
1967
1916
1835
1809
1745
1719
1706
1707
1730
1739
1713
1702
1690
1664
1664
1674
1687
1717
1713
1699
1711
1718
1719
1717
1732
1755
1782
1902
2026
2160
2243
2227
2194
2134
2093
2071
2039
1991
1911
1851
1796
1771
1757
1754
1746
1757
1758
1751
1733
1737
1712
1712
1711
1687
1695
1728
1759
1757
1754
1750
1729
1744
1808
1941
2142
2333
2433
2415
2357
2257
2194
2134
2074
1969
1851
1742
1665
1613
1589
1573
1535
1535
1499
1472
1455
1446
1431
1440
1456
1440
1439
1450
1458
1479
1458
1454
1473
1511
1648
1875
2071
2192
2159
2114
2005
1893
1825
1739
1663
1535
1471
1429
1413
1441
1471
1493
1467
1424
1413
1410
1386
1388
1395
1418
1455
1463
1446
1440
1438
1443
1507
1643
1877
2083
2176
2153
2053
1919
1828
1744
1681
1578
1479
1417
1389
1406
1431
1452
1448
1424
1390
1328
1266
1247
1254
1279
1373
1435
1479
1510
1535
1535
1571
1648
1776
1991
2194
2277
2260
2164
2088
1981
1902
1808
1728
1639
1516
1456
1411
1410
1424
1447
1447
1440
1424
1408
1389
1392
1391
1409
1441
1514
1563
1583
1586
1579
1596
1591
1606
1611
1678
1835
2066
2247
2294
2244
2119
1999
1926
1891
1811
1691
1584
1511
1447
1442
1456
1466
1479
1463
1457
1456
1473
1478
1515
1500
1493
1472
1499
1527
1529
1535
1557
1587
1613
1602
1588
1582
1591
1625
1707
1858
2063
2192
2238
2159
2031
1904
1821
1744
1680
1599
1522
1460
1419
1405
1399
1425
1467
1493
1502
1495
1487
1479
1475
1462
1494
1515
1535
1535
1535
1553
1584
1611
1616
1647
1718
1873
2032
2121
2127
2062
1935
1838
1761
1682
1627
1565
1519
1481
1478
1490
1535
1535
1569
1567
1557
1509
1498
1506
1535
1535
1572
1573
1584
1601
1607
1621
1655
1742
1905
2043
2108
2077
2011
1922
1855
1792
1744
1687
1641
1585
1527
1577
1599
1637
1616
1619
1615
1613
1607
1626
1619
1630
1590
1607
1617
1639
1648
1728
1843
2001
2133
2192
2161
2096
2006
1957
1872
1834
1763
1694
1630
1614
1627
1664
1680
1669
1675
1662
1647
1616
1597
1569
1579
1561
1573
1595
1588
1600
1676
1797
1966
2122
2202
2182
2123
2047
1977
1904
1856
1789
1680
1591
1482
1443
1451
1472
1500
1487
1469
1459
1459
1435
1447
1467
1488
1501
1530
1535
1574
1573
1535
1535
1535
1559
1597
1744
1930
2096
2166
2151
2096
2020
1932
1857
1791
1725
1645
1559
1483
1440
1424
1441
1456
1473
1459
1461
1468
1459
1467
1486
1501
1505
1535
1535
1554
1562
1553
1535
1582
1577
1583
1589
1562
1584
1601
1687
1842
2021
2158
2199
2149
2032
1926
1835
1795
1750
1668
1598
1522
1477
1429
1433
1424
1450
1459
1467
1472
1469
1467
1488
1501
1523
1535
1527
1535
1535
1554
1584
1574
1584
1598
1612
1631
1637
1616
1626
1647
1653
1734
1879
2039
2145
2178
2128
2017
1904
1807
1746
1687
1622
1555
1506
1487
1491
1519
1535
1535
1534
1526
1520
1527
1531
1520
1534
1535
1535
1601
1605
1616
1634
1645
1627
1625
1621
1629
1665
1721
1847
2009
2121
2137
2059
1984
1891
1823
1778
1715
1654
1603
1606
1632
1649
1651
1648
1623
1626
1635
1626
1616
1616
1621
1650
1665
1659
1635
1595
1598
1600
1602
1614
1618
1642
1712
1799
1936
2063
2130
2134
2064
1965
1878
1809
1776
1731
1697
1647
1611
1584
1588
1601
1602
1623
1606
1591
1574
1561
1553
1567
1591
1603
1597
1607
1623
1616
1616
1614
1597
1601
1607
1669
1671
1686
1781
1919
2111
2262
2302
2253
2143
2019
1910
1818
1739
1679
1601
1554
1533
1530
1535
1527
1535
1557
1567
1557
1520
1531
1521
1558
1585
1616
1616
1633
1617
1616
1603
1614
1630
1646
1657
1664
1667
1681
1728
1815
1952
2115
2178
2192
2127
2015
1941
1877
1825
1751
1686
1629
1605
1583
1581
1574
1578
1574
1579
1591
1582
1563
1578
1581
1628
1650
1643
1643
1648
1648
1649
1664
1670
1653
1649
1690
1756
1917
2055
2147
2153
2100
2019
1904
1818
1774
1735
1670
1602
1571
1584
1586
1606
1586
1589
1557
1522
1504
1501
1527
1535
1535
1535
1558
1563
1574
1556
1569
1535
1594
1666
1807
1940
2047
2043
1979
1872
1806
1763
1715
1653
1589
1558
1525
1521
1535
1570
1584
1535
1495
1488
1481
1463
1473
1488
1483
1478
1481
1501
1531
1535
1561
1535
1526
1517
1525
1642
1791
1941
2019
2028
1980
1907
1813
1736
1686
1632
1572
1495
1471
1437
1430
1428
1421
1454
1478
1426
1413
1356
1341
1352
1414
1479
1488
1519
1535
1568
1599
1616
1651
1651
1646
1636
1667
1718
1829
1985
2096
2095
2055
1978
1885
1817
1772
1688
1632
1570
1535
1486
1472
1451
1444
1439
1456
1475
1486
1487
1488
1513
1533
1569
1574
1586
1584
1585
1579
1615
1619
1602
1591
1589
1609
1606
1627
1701
1797
1945
2065
2099
2061
1969
1885
1787
1750
1721
1649
1591
1519
1515
1495
1521
1535
1535
1574
1565
1557
1535
1535
1535
1535
1535
1578
1559
1566
1582
1621
1634
1649
1664
1703
1803
1934
2017
2055
2014
1938
1839
1777
1727
1697
1671
1611
1586
1575
1531
1562
1590
1590
1585
1569
1555
1535
1559
1574
1570
1564
1583
1574
1581
1589
1590
1582
1638
1776
1939
2083
2128
2086
2019
1911
1833
1776
1703
1648
1582
1531
1505
1503
1514
1520
1535
1535
1526
1492
1499
1520
1529
1535
1567
1558
1584
1574
1569
1571
1604
1614
1590
1602
1647
1749
1899
2022
2095
2058
1995
1938
1852
1806
1754
1711
1658
1590
1505
1479
1456
1471
1502
1513
1535
1564
1567
1556
1578
1587
1588
1554
1565
1572
1587
1583
1610
1599
1610
1623
1651
1675
1712
1826
1945
2071
2145
2099
2070
2003
1910
1861
1829
1786
1712
1680
1639
1607
1602
1614
1626
1632
1620
1626
1600
1620
1601
1601
1600
1601
1615
1653
1674
1678
1663
1647
1667
1669
1661
1722
1815
1945
2033
2057
2014
1947
1867
1840
1818
1773
1711
1656
1646
1616
1667
1730
1723
1723
1735
1722
1730
1727
1726
1712
1710
1710
1687
1712
1709
1698
1712
1743
1842
1983
2105
2175
2174
2141
2081
2015
1968
1909
1843
1771
1673
1639
1617
1605
1631
1626
1613
1594
1559
1559
1535
1535
1584
1583
1597
1582
1535
1527
1526
1535
1579
1687
1851
2013
2113
2125
2066
1951
1873
1808
1745
1699
1633
1526
1453
1414
1403
1431
1425
1479
1481
1459
1454
1461
1453
1430
1421
1440
1444
1452
1490
1488
1498
1517
1531
1606
1762
1922
2058
2097
2076
1979
1870
1790
1739
1667
1583
1505
1440
1424
1408
1390
1339
1307
1298
1306
1348
1441
1501
1505
1490
1470
1456
1473
1447
1458
1467
1492
1586
1723
1858
1942
1943
1879
1799
1731
1667
1644
1629
1568
1519
1459
1422
1451
1453
1487
1488
1524
1507
1487
1485
1484
1459
1447
1444
1468
1463
1473
1470
1471
1478
1476
1486
1527
1636
1801
1936
2004
1997
1931
1815
1735
1687
1654
1615
1563
1477
1427
1414
1456
1488
1501
1533
1500
1501
1474
1469
1488
1467
1467
1468
1466
1463
1438
1456
1469
1535
1651
1783
1855
1872
1840
1744
1682
1636
1595
1579
1520
1458
1409
1397
1407
1414
1453
1480
1475
1462
1442
1465
1462
1475
1486
1489
1531
1535
1558
1568
1555
1535
1558
1573
1661
1789
1911
1975
1951
1902
1806
1693
1631
1564
1530
1456
1403
1378
1370
1394
1414
1456
1456
1456
1438
1431
1425
1441
1459
1457
1474
1499
1500
1527
1559
1579
1565
1535
1567
1613
1686
1779
1858
1875
1839
1779
1687
1635
1594
1577
1521
1511
1487
1471
1473
1488
1518
1533
1531
1573
1575
1557
1578
1573
1600
1643
1684
1731
1744
1763
1789
1781
1745
1712
1652
1644
1651
1762
1869
1931
1949
1914
1861
1776
1721
1699
1645
1614
1609
1614
1637
1628
1607
1593
1595
1581
1568
1535
1535
1570
1584
1584
1613
1622
1632
1653
1643
1650
1647
1631
1628
1667
1747
1842
1879
1851
1770
1712
1651
1600
1571
1535
1526
1526
1534
1559
1609
1603
1590
1579
1504
1468
1455
1448
1477
1472
1488
1513
1520
1526
1513
1483
1456
1439
1450
1470
1559
1676
1770
1823
1791
1728
1607
1520
1474
1427
1426
1441
1424
1444
1461
1481
1475
1441
1417
1422
1412
1424
1424
1406
1434
1466
1487
1430
1397
1360
1392
1455
1535
1651
1829
1937
2000
2017
1970
1914
1815
1722
1695
1647
1605
1573
1567
1555
1535
1531
1499
1473
1471
1472
1490
1501
1531
1535
1575
1582
1587
1599
1601
1626
1692
1808
1889
1949
1937
1883
1787
1719
1647
1607
1572
1535
1535
1583
1604
1606
1634
1635
1617
1602
1535
1535
1530
1520
1520
1535
1557
1565
1593
1672
1775
1844
1908
1922
1879
1793
1702
1613
1567
1517
1493
1487
1487
1506
1535
1535
1586
1569
1535
1522
1494
1486
1489
1495
1490
1507
1523
1575
1683
1777
1872
1904
1857
1775
1705
1626
1572
1531
1486
1427
1407
1402
1409
1426
1441
1489
1515
1507
1507
1505
1498
1491
1489
1499
1511
1529
1580
1663
1765
1840
1890
1854
1817
1762
1714
1678
1650
1589
1562
1495
1502
1495
1511
1531
1504
1505
1494
1512
1520
1526
1553
1590
1600
1597
1623
1625
1647
1675
1743
1846
1930
1965
1934
1882
1824
1790
1743
1723
1675
1637
1615
1584
1578
1584
1587
1599
1617
1594
1610
1605
1651
1659
1683
1675
1690
1712
1717
1715
1714
1730
1745
1758
1827
1936
2038
2112
2106
2069
2011
1967
1904
1859
1810
1769
1728
1686
1662
1632
1625
1633
1647
1650
1638
1631
1638
1630
1635
1647
1664
1653
1661
1691
1736
1750
1740
1711
1750
1817
1892
1956
1966
1951
1927
1885
1851
1813
1793
1774
1725
1682
1681
1675
1699
1711
1712
1712
1717
1707
1705
1712
1718
1755
1777
1770
1759
1755
1757
1758
1758
1797
1888
1999
2032
2032
2007
1958
1926
1888
1853
1835
1771
1739
1693
1693
1683
1711
1737
1776
1796
1775
1750
1723
1698
1717
1737
1731
1737
1744
1726
1730
1754
1745
1743
1759
1759
1744
1745
1782
1892
1974
2022
2011
1987
1927
1889
1865
1855
1825
1777
1747
1725
1711
1739
1747
1786
1779
1744
1694
1694
1701
1731
1757
1746
1743
1745
1762
1727
1687
1663
1691
1732
1744
1751
1755
1754
1767
1765
1783
1824
1937
2047
2109
2108
2064
2023
1984
1962
1927
1903
1850
1823
1777
1744
1716
1700
1703
1723
1738
1718
1715
1712
1725
1790
1855
1918
1903
1875
1872
1821
1795
1802
1793
1779
1767
1751
1737
1744
1794
1867
1946
1969
1964
1937
1872
1831
1786
1764
1722
1675
1627
1598
1578
1600
1613
1628
1616
1613
1607
1585
1583
1577
1584
1606
1605
1646
1650
1667
1677
1672
1675
1694
1733
1838
1911
1974
1999
1968
1938
1874
1854
1854
1815
1773
1728
1697
1680
1683
1685
1687
1693
1686
1667
1683
1675
1660
1670
1681
1729
1754
1743
1737
1744
1740
1738
1744
1741
1750
1790
1850
1986
2139
2241
2272
2233
2177
2095
2069
2078
2044
1971
1899
1840
1760
1750
1763
1756
1773
1754
1713
1665
1626
1570
1554
1575
1581
1584
1593
1611
1616
1625
1623
1622
1648
1666
1678
1681
1685
1701
1680
1670
1661
1717
1872
2071
2226
2261
2206
2053
1938
1862
1835
1785
1735
1632
1521
1427
1395
1392
1399
1386
1376
1360
1350
1339
1354
1373
1367
1359
1382
1374
1405
1446
1429
1425
1421
1424
1440
1456
1475
1526
1648
1866
1997
2064
1999
1879
1773
1696
1616
1559
1473
1396
1361
1346
1371
1398
1407
1435
1423
1408
1393
1392
1395
1397
1407
1423
1455
1461
1474
1473
1475
1495
1482
1462
1469
1530
1639
1839
1991
2034
1993
1885
1787
1696
1642
1613
1535
1474
1418
1392
1363
1369
1389
1407
1424
1413
1403
1388
1386
1408
1433
1456
1472
1475
1467
1483
1493
1493
1495
1522
1535
1531
1535
1535
1555
1535
1605
1715
1872
2013
2071
2002
1897
1794
1711
1663
1645
1596
1526
1466
1431
1433
1423
1441
1455
1451
1461
1466
1461
1456
1455
1459
1488
1520
1535
1530
1535
1535
1535
1571
1561
1563
1568
1579
1568
1559
1587
1591
1597
1600
1630
1704
1825
1942
2012
1961
1871
1775
1680
1622
1584
1520
1484
1435
1446
1456
1463
1466
1502
1535
1525
1535
1535
1535
1555
1554
1535
1535
1558
1556
1589
1598
1579
1597
1591
1608
1623
1625
1633
1673
1761
1877
1937
1942
1894
1809
1744
1701
1659
1635
1614
1616
1600
1586
1607
1613
1643
1647
1648
1641
1607
1618
1617
1621
1623
1665
1677
1686
1702
1681
1695
1695
1706
1707
1682
1693
1711
1738
1829
1931
2010
2023
1997
1936
1855
1809
1778
1757
1742
1713
1664
1648
1647
1670
1669
1652
1654
1632
1623
1621
1632
1651
1664
1649
1667
1680
1679
1671
1680
1694
1701
1712
1725
1741
1733
1742
1743
1744
1744
1734
1744
1749
1857
1957
2057
2077
2029
1968
1895
1859
1840
1829
1791
1748
1713
1683
1679
1669
1675
1691
1757
1776
1748
1742
1687
1668
1666
1638
1646
1650
1657
1712
1718
1723
1711
1694
1680
1674
1670
1668
1681
1712
1765
1851
1957
2000
2003
1970
1901
1847
1824
1802
1790
1766
1759
1717
1725
1727
1727
1714
1725
1712
1702
1696
1682
1703
1711
1722
1742
1746
1717
1727
1713
1728
1716
1715
1731
1799
1903
2000
2032
2009
1941
1863
1840
1811
1821
1793
1771
1721
1702
1717
1725
1744
1794
1794
1793
1763
1744
1757
1744
1763
1776
1776
1775
1766
1776
1783
1764
1786
1791
1810
1886
1995
2087
2117
2082
2026
1967
1934
1906
1875
1840
1793
1747
1702
1670
1712
1710
1712
1714
1726
1719
1725
1719
1715
1733
1745
1743
1742
1760
1745
1757
1751
1763
1755
1761
1776
1840
1897
2001
2079
2111
2094
2039
1970
1936
1902
1875
1856
1786
1747
1729
1691
1701
1712
1726
1728
1712
1712
1714
1729
1727
1737
1723
1727
1742
1786
1808
1808
1793
1786
1783
1787
1782
1798
1814
1857
1957
2053
2128
2106
2070
1983
1935
1899
1871
1851
1815
1788
1760
1728
1731
1731
1737
1744
1751
1729
1744
1733
1727
1721
1750
1742
1727
1728
1741
1747
1749
1746
1778
1777
1765
1769
1872
1968
2073
2095
2071
2035
1962
1923
1881
1858
1825
1793
1758
1734
1735
1776
1750
1775
1775
1756
1728
1722
1737
1730
1726
1744
1743
1739
1744
1732
1739
1719
1731
1747
1835
1930
2014
2094
2069
2054
1980
1915
1898
1851
1831
1791
1744
1741
1735
1754
1774
1756
1742
1731
1709
1712
1701
1702
1712
1707
1727
1742
1744
1727
1725
1744
1734
1738
1795
1906
2031
2149
2160
2150
2096
2027
1995
1953
1919
1882
1822
1776
1744
1731
1727
1728
1723
1715
1707
1702
1683
1677
1680
1691
1683
1694
1685
1690
1726
1744
1753
1743
1739
1742
1730
1751
1851
2010
2159
2277
2313
2290
2251
2179
2125
2087
2019
1983
1879
1797
1715
1711
1682
1669
1666
1658
1662
1621
1587
1563
1535
1530
1517
1509
1510
1520
1505
1505
1519
1507
1503
1506
1520
1563
1562
1564
1616
1758
1941
2113
2187
2149
2069
1971
1898
1842
1773
1712
1620
1526
1494
1453
1450
1441
1442
1424
1438
1413
1395
1362
1379
1378
1382
1371
1366
1383
1373
1375
1383
1380
1439
1479
1504
1520
1607
1798
1982
2113
2108
2020
1913
1811
1769
1723
1642
1565
1488
1441
1441
1449
1477
1482
1471
1472
1455
1434
1415
1425
1423
1445
1460
1491
1487
1488
1472
1487
1488
1525
1596
1714
1874
1973
1997
1946
1828
1744
1690
1649
1623
1535
1461
1428
1433
1454
1488
1498
1490
1480
1458
1443
1456
1463
1488
1500
1488
1510
1535
1535
1535
1531
1521
1565
1695
1872
1989
2035
2000
1915
1829
1761
1696
1649
1616
1568
1497
1442
1418
1438
1466
1498
1535
1515
1494
1472
1470
1489
1513
1510
1520
1535
1559
1580
1591
1593
1610
1596
1609
1703
1859
2019
2100
2091
2026
1955
1903
1868
1802
1760
1677
1603
1533
1501
1488
1500
1517
1532
1518
1515
1520
1525
1525
1520
1524
1524
1526
1569
1586
1614
1595
1607
1598
1575
1584
1598
1602
1648
1779
1940
2032
2039
1968
1872
1801
1753
1712
1693
1622
1558
1494
1456
1457
1476
1485
1498
1503
1494
1488
1456
1469
1477
1507
1507
1510
1553
1582
1603
1576
1535
1555
1586
1607
1697
1808
1909
1963
1968
1910
1819
1767
1713
1675
1654
1591
1535
1519
1526
1559
1605
1645
1616
1600
1597
1587
1585
1584
1600
1618
1621
1619
1614
1645
1634
1653
1678
1684
1719
1829
1971
2021
2036
1967
1890
1827
1790
1766
1730
1690
1628
1587
1573
1586
1606
1629
1632
1637
1611
1598
1586
1590
1605
1670
1644
1652
1655
1675
1662
1653
1666
1681
1684
1675
1680
1685
1701
1777
1903
2039
2090
2059
1985
1906
1865
1834
1787
1767
1705
1659
1579
1563
1557
1582
1609
1625
1619
1606
1626
1614
1637
1629
1616
1597
1597
1620
1679
1689
1680
1671
1677
1686
1717
1723
1750
1721
1711
1711
1714
1725
1749
1861
1967
2078
2122
2091
2032
1962
1910
1870
1839
1801
1763
1700
1651
1635
1616
1623
1662
1668
1672
1665
1649
1659
1689
1743
1726
1739
1743
1728
1738
1729
1738
1733
1755
1734
1728
1730
1715
1755
1849
1974
2030
2055
2006
1967
1878
1843
1803
1775
1741
1695
1684
1657
1671
1698
1698
1712
1694
1682
1657
1686
1683
1719
1731
1742
1733
1735
1744
1738
1725
1713
1730
1744
1758
1778
1859
1962
2032
2045
2029
1932
1861
1827
1801
1792
1744
1712
1699
1707
1684
1696
1704
1712
1709
1699
1703
1671
1713
1709
1715
1721
1716
1727
1742
1725
1762
1774
1776
1755
1776
1755
1787
1776
1808
1885
2005
2095
2128
2091
2033
1934
1882
1842
1831
1810
1764
1727
1705
1680
1699
1723
1721
1725
1686
1683
1687
1711
1714
1729
1723
1712
1719
1748
1776
1770
1776
1766
1763
1776
1776
1786
1794
1779
1773
1782
1804
1856
1946
2063
2119
2155
2123
2064
1979
1915
1885
1879
1862
1821
1769
1735
1714
1736
1749
1767
1755
1751
1744
1743
1733
1731
1751
1741
1741
1756
1739
1745
1735
1739
1759
1767
1749
1755
1771
1777
1792
1863
1970
2067
2131
2119
2082
2007
1942
1901
1877
1859
1841
1778
1744
1730
1749
1761
1757
1749
1730
1727
1722
1728
1727
1712
1716
1731
1744
1744
1739
1744
1745
1716
1740
1758
1805
1881
2004
2062
2086
2067
2022
1923
1865
1823
1796
1767
1740
1714
1701
1710
1723
1754
1744
1709
1699
1686
1689
1699
1717
1731
1732
1715
1739
1744
1730
1744
1742
1743
1793
1875
2005
2112
2163
2177
2128
2066
2000
1965
1934
1894
1847
1788
1739
1718
1743
1750
1759
1747
1721
1699
1700
1698
1714
1709
1693
1711
1711
1710
1729
1726
1699
1687
1693
1734
1747
1744
1761
1840
1943
2091
2175
2187
2141
2080
2005
1967
1915
1851
1776
1734
1693
1671
1664
1648
1657
1681
1675
1680
1656
1653
1653
1661
1647
1649
1648
1674
1703
1728
1717
1697
1693
1701
1698
1709
1712
1709
1712
1744
1837
1985
2097
2165
2167
2141
2109
2057
1980
1936
1874
1799
1743
1677
1641
1621
1623
1622
1635
1621
1591
1585
1571
1593
1598
1648
1663
1645
1641
1626
1623
1631
1609
1616
1596
1594
1622
1693
1826
1963
2003
1997
1949
1883
1821
1803
1782
1722
1663
1611
1594
1594
1629
1648
1629
1616
1625
1616
1618
1621
1616
1635
1643
1649
1677
1675
1652
1649
1653
1669
1675
1711
1814
1968
2058
2087
2077
2034
1989
1946
1898
1863
1797
1723
1639
1631
1602
1619
1632
1625
1632
1619
1613
1602
1605
1594
1594
1595
1612
1599
1598
1605
1638
1653
1675
1658
1659
1671
1665
1741
1872
2013
2129
2135
2099
2033
1958
1903
1873
1849
1793
1744
1679
1616
1599
1600
1619
1639
1636
1613
1600
1587
1580
1584
1588
1607
1606
1625
1613
1616
1635
1634
1631
1647
1644
1646
1680
1706
1750
1880
2000
2099
2109
2074
2031
1943
1897
1857
1826
1776
1709
1661
1637
1635
1627
1648
1648
1642
1616
1605
1589
1601
1610
1623
1621
1627
1626
1634
1629
1629
1626
1628
1613
1697
1855
1970
2057
2063
2032
1968
1890
1851
1842
1776
1738
1690
1657
1661
1693
1703
1710
1686
1691
1696
1702
1707
1712
1707
1683
1667
1680
1699
1704
1685
1677
1712
1840
1980
2087
2149
2144
2097
2037
1966
1934
1885
1840
1769
1700
1648
1629
1645
1666
1690
1691
1659
1644
1628
1631
1646
1650
1650
1667
1709
1702
1715
1711
1706
1737
1792
1942
2166
2321
2394
2363
2307
2243
2175
2122
2033
1936
1819
1726
1653
1600
1603
1619
1591
1581
1572
1522
1503
1499
1491
1495
1503
1466
1467
1476
1500
1490
1490
1485
1482
1481
1606
1835
2035
2187
2208
2117
2013
1899
1797
1707
1610
1505
1386
1285
1250
1226
1216
1239
1246
1269
1251
1232
1226
1200
1206
1227
1278
1282
1282
1271
1262
1274
1269
1291
1331
1451
1647
1806
1882
1843
1750
1639
1574
1498
1443
1363
1264
1168
1131
1129
1140
1172
1227
1275
1264
1265
1247
1249
1283
1282
1282
1287
1277
1291
1294
1296
1328
1374
1522
1694
1803
1814
1766
1659
1570
1506
1446
1389
1330
1247
1215
1213
1232
1261
1300
1319
1323
1294
1284
1287
1299
1328
1340
1344
1360
1392
1401
1392
1392
1386
1422
1445
1535
1707
1847
1905
1892
1787
1694
1622
1578
1488
1431
1361
1300
1258
1264
1258
1270
1301
1342
1357
1339
1339
1307
1309
1328
1337
1357
1360
1344
1345
1361
1375
1427
1421
1446
1454
1436
1406
1419
1530
1667
1830
1913
1900
1833
1755
1680
1641
1589
1533
1465
1388
1319
1290
1293
1297
1319
1351
1381
1367
1360
1365
1357
1361
1382
1375
1363
1376
1376
1393
1423
1456
1453
1470
1451
1456
1472
1470
1499
1588
1684
1791
1853
1840
1777
1700
1622
1584
1533
1472
1430
1370
1317
1296
1287
1328
1351
1377
1373
1362
1361
1363
1394
1397
1424
1424
1422
1451
1431
1444
1443
1466
1453
1448
1451
1457
1474
1513
1506
1535
1625
1728
1822
1835
1804
1728
1644
1579
1535
1496
1451
1393
1355
1303
1312
1349
1363
1390
1393
1387
1397
1392
1407
1421
1398
1414
1423
1456
1453
1462
1446
1461
1499
1527
1571
1607
1698
1772
1824
1818
1783
1700
1623
1571
1531
1482
1459
1437
1405
1408
1430
1453
1485
1487
1487
1478
1484
1506
1515
1523
1553
1535
1535
1535
1535
1535
1535
1561
1581
1664
1757
1824
1856
1817
1776
1700
1662
1638
1605
1582
1535
1517
1514
1515
1533
1535
1554
1567
1571
1535
1562
1566
1563
1585
1584
1595
1583
1601
1629
1649
1623
1630
1632
1695
1790
1882
1936
1905
1851
1757
1713
1703
1675
1627
1605
1582
1535
1530
1552
1535
1535
1554
1563
1562
1535
1558
1571
1600
1637
1636
1649
1648
1633
1645
1648
1677
1675
1684
1757
1802
1904
1936
1921
1882
1803
1754
1745
1726
1711
1693
1674
1632
1599
1599
1616
1609
1648
1642
1669
1678
1659
1654
1638
1659
1655
1662
1673
1682
1664
1661
1680
1677
1701
1739
1803
1895
1943
1967
1925
1870
1829
1824
1823
1827
1741
1682
1646
1645
1626
1635
1639
1646
1643
1611
1562
1557
1584
1616
1644
1653
1678
1669
1652
1663
1648
1670
1726
1819
1915
1952
1951
1915
1886
1847
1808
1779
1744
1679
1650
1634
1648
1648
1665
1659
1639
1618
1594
1616
1629
1633
1634
1643
1633
1641
1648
1647
1648
1685
1769
1849
1950
1979
1921
1872
1794
1754
1744
1719
1663
1625
1563
1535
1554
1590
1601
1590
1585
1570
1535
1535
1534
1535
1554
1535
1535
1535
1535
1558
1586
1611
1649
1743
1871
1977
1994
1959
1903
1815
1795
1757
1727
1671
1602
1572
1533
1507
1492
1520
1535
1590
1597
1584
1567
1535
1535
1571
1572
1566
1569
1560
1569
1582
1595
1575
1585
1616
1696
1823
1947
1984
1985
1926
1866
1817
1751
1705
1664
1619
1586
1522
1490
1501
1501
1517
1525
1523
1520
1507
1504
1505
1493
1493
1503
1499
1535
1571
1595
1584
1581
1574
1574
1561
1569
1648
1788
1878
1915
1885
1833
1776
1730
1712
1677
1606
1555
1498
1469
1453
1486
1474
1467
1498
1475
1446
1459
1460
1477
1473
1500
1520
1501
1495
1495
1535
1533
1559
1619
1728
1833
1873
1870
1798
1725
1681
1653
1633
1578
1519
1462
1440
1467
1463
1474
1469
1473
1488
1477
1478
1487
1498
1535
1522
1527
1527
1535
1574
1526
1535
1535
1535
1565
1641
1760
1859
1893
1875
1837
1739
1675
1620
1609
1579
1518
1471
1435
1424
1472
1485
1483
1463
1466
1451
1482
1515
1511
1506
1509
1520
1519
1555
1565
1553
1555
1535
1566
1535
1558
1589
1627
1710
1811
1907
1904
1885
1827
1739
1683
1649
1621
1599
1534
1488
1455
1435
1460
1486
1494
1514
1505
1491
1502
1501
1524
1561
1533
1535
1533
1535
1535
1569
1574
1562
1569
1585
1554
1571
1563
1602
1671
1771
1842
1858
1827
1737
1680
1629
1609
1581
1559
1517
1488
1482
1481
1519
1515
1534
1509
1502
1505
1513
1520
1535
1516
1519
1521
1530
1585
1580
1581
1574
1563
1591
1675
1744
1823
1836
1817
1749
1693
1671
1646
1616
1575
1535
1523
1514
1523
1535
1569
1570
1559
1557
1566
1569
1562
1575
1570
1599
1617
1628
1627
1615
1619
1623
1621
1667
1719
1793
1859
1875
1870
1797
1725
1695
1667
1637
1616
1600
1565
1523
1535
1535
1558
1577
1590
1587
1562
1571
1587
1589
1589
1591
1591
1615
1646
1659
1673
1646
1648
1654
1679
1746
1796
1895
1919
1909
1852
1785
1746
1721
1707
1685
1661
1632
1600
1612
1595
1601
1617
1632
1637
1649
1629
1634
1648
1638
1657
1651
1659
1673
1680
1689
1717
1717
1706
1712
1704
1741
1819
1885
1933
1920
1887
1818
1776
1744
1725
1722
1698
1676
1652
1647
1657
1663
1667
1665
1657
1661
1634
1643
1658
1665
1668
1665
1680
1680
1682
1691
1710
1696
1725
1766
1826
1898
1937
1915
1877
1822
1792
1757
1743
1708
1683
1680
1658
1682
1699
1730
1743
1723
1710
1712
1689
1682
1685
1698
1711
1698
1702
1699
1709
1719
1708
1729
1777
1861
1921
1936
1905
1873
1822
1802
1781
1765
1746
1740
1694
1691
1702
1725
1719
1718
1726
1699
1709
1708
1715
1741
1728
1727
1733
1744
1735
1759
1744
1744
1744
1749
1870
1939
2021
2033
1995
1934
1872
1863
1843
1829
1829
1784
1750
1739
1732
1746
1744
1745
1744
1733
1724
1729
1715
1743
1726
1727
1740
1741
1737
1719
1744
1737
1757
1731
1733
1743
1762
1765
1808
1891
1969
2031
2057
2002
1958
1894
1840
1822
1808
1798
1744
1722
1696
1687
1696
1699
1696
1695
1696
1680
1665
1685
1686
1679
1686
1669
1657
1680
1667
1679
1681
1680
1697
1743
1798
1865
1939
1939
1921
1904
1851
1803
1797
1755
1724
1701
1699
1666
1678
1686
1691
1693
1696
1685
1680
1666
1648
1664
1680
1690
1694
1702
1712
1709
1673
1670
1697
1797
1893
1936
1941
1904
1872
1785
1749
1749
1727
1698
1690
1648
1647
1647
1657
1683
1680
1665
1650
1648
1653
1659
1655
1667
1674
1680
1670
1667
1681
1674
1680
1691
1747
1824
1911
1968
1975
1945
1902
1837
1799
1776
1747
1731
1696
1648
1654
1649
1642
1654
1658
1666
1639
1632
1637
1651
1670
1659
1673
1653
1675
1672
1685
1681
1694
1689
1701
1711
1712
1713
1741
1803
1868
1952
2025
2016
1978
1907
1840
1810
1797
1792
1749
1719
1674
1671
1648
1656
1674
1676
1681
1680
1680
1679
1657
1666
1661
1655
1654
1663
1685
1680
1676
1680
1675
1682
1689
1689
1721
1715
1744
1749
1778
1855
1939
1991
2032
1998
1947
1866
1820
1808
1793
1762
1744
1702
1698
1676
1682
1681
1680
1680
1696
1683
1680
1659
1680
1678
1684
1680
1697
1695
1684
1705
1698
1696
1697
1707
1707
1718
1801
1861
1935
1975
1970
1931
1869
1808
1797
1775
1741
1710
1675
1680
1679
1698
1698
1696
1705
1677
1669
1667
1663
1683
1673
1689
1689
1693
1705
1693
1697
1696
1695
1724
1777
1853
1938
1983
1968
1934
1861
1818
1776
1776
1738
1714
1694
1695
1712
1717
1730
1745
1713
1712
1697
1691
1710
1690
1709
1710
1723
1728
1712
1723
1710
1727
1722
1753
1849
1947
1997
2032
2005
1952
1902
1859
1824
1825
1783
1775
1713
1713
1703
1735
1728
1729
1744
1723
1709
1703
1697
1719
1703
1702
1710
1725
1715
1724
1713
1714
1703
1722
1776
1859
1978
2041
2084
2047
1991
1921
1895
1853
1842
1812
1772
1725
1705
1679
1690
1695
1680
1675
1666
1673
1662
1665
1648
1651
1645
1651
1652
1676
1660
1678
1670
1693
1709
1714
1715
1693
1707
1695
1749
1857
1968
2034
2055
1994
1931
1869
1842
1823
1808
1791
1745
1683
1645
1637
1648
1653
1667
1649
1642
1631
1631
1626
1629
1627
1618
1639
1648
1639
1650
1627
1665
1661
1677
1673
1680
1690
1694
1696
1749
1834
1939
2004
1997
1956
1879
1824
1799
1767
1744
1697
1663
1671
1647
1663
1687
1678
1679
1666
1666
1646
1653
1662
1659
1653
1658
1649
1659
1683
1693
1699
1687
1687
1693
1709
1776
1861
1929
1947
1936
1879
1813
1782
1739
1729
1698
1669
1658
1648
1662
1684
1690
1699
1680
1670
1655
1665
1681
1679
1678
1669
1667
1675
1697
1687
1681
1681
1679
1693
1683
1776
1847
1936
1991
2002
1950
1920
1847
1813
1778
1758
1741
1701
1677
1669
1676
1669
1694
1684
1665
1670
1648
1665
1670
1675
1677
1695
1681
1675
1674
1693
1703
1697
1691
1712
1727
1721
1700
1721
1723
1761
1853
1968
2032
2043
1997
1931
1842
1822
1811
1795
1767
1741
1703
1678
1659
1656
1678
1674
1680
1664
1658
1655
1674
1649
1645
1646
1654
1667
1675
1679
1680
1671
1691
1694
1712
1715
1730
1727
1723
1727
1759
1853
1956
2005
2035
2003
1938
1883
1840
1811
1804
1775
1737
1696
1674
1661
1677
1694
1694
1696
1675
1659
1645
1648
1650
1678
1667
1661
1659
1665
1706
1718
1703
1697
1684
1692
1686
1727
1808
1899
1982
2000
1974
1920
1857
1793
1762
1762
1741
1687
1663
1671
1662
1683
1725
1722
1733
1709
1665
1651
1670
1666
1671
1690
1677
1686
1679
1675
1671
1680
1667
1711
1778
1899
1975
2025
2016
1958
1891
1840
1798
1772
1762
1716
1670
1650
1655
1680
1680
1680
1671
1664
1655
1649
1659
1643
1651
1658
1664
1680
1681
1685
1679
1680
1687
1676
1696
1778
1866
1965
2032
2046
2032
1967
1903
1856
1831
1808
1762
1729
1681
1685
1657
1658
1662
1676
1659
1657
1648
1646
1651
1648
1650
1647
1657
1667
1667
1680
1680
1691
1669
1674
1664
1666
1682
1777
1875
1968
2037
2067
2001
1941
1875
1846
1831
1792
1750
1718
1682
1667
1680
1663
1693
1684
1671
1679
1654
1650
1662
1663
1653
1637
1639
1642
1638
1655
1674
1662
1666
1662
1705
1786
1893
1987
2025
2017
1953
1899
1840
1802
1776
1726
1687
1635
1610
1629
1650
1663
1659
1652
1650
1599
1616
1618
1611
1631
1618
1616
1603
1638
1602
1627
1621
1621
1667
1772
1891
2002
2031
2027
1958
1869
1825
1791
1774
1727
1698
1653
1616
1627
1643
1639
1643
1629
1626
1613
1613
1607
1611
1633
1615
1616
1622
1648
1655
1655
1633
1646
1655
1664
1713
1814
1925
2012
2035
2017
1968
1909
1857
1806
1787
1763
1710
1658
1630
1601
1610
1626
1635
1607
1598
1602
1585
1610
1623
1630
1614
1630
1614
1609
1617
1639
1651
1653
1648
1652
1650
1659
1738
1851
1963
2059
2084
2039
1979
1905
1842
1808
1791
1751
1683
1619
1598
1590
1616
1639
1648
1645
1648
1622
1619
1609
1616
1616
1622
1631
1623
1629
1616
1626
1633
1621
1644
1760
1858
1968
2023
2018
1977
1909
1850
1802
1767
1730
1680
1648
1601
1597
1614
1625
1647
1647
1623
1621
1602
1574
1581
1584
1586
1591
1605
1622
1611
1617
1616
1616
1617
1678
1801
1933
2055
2070
2047
1986
1926
1850
1798
1769
1707
1669
1623
1583
1571
1580
1598
1601
1615
1606
1587
1575
1567
1582
1584
1594
1595
1612
1601
1626
1650
1650
1648
1655
1659
1647
1682
1774
1901
2017
2096
2103
2042
1951
1872
1831
1821
1797
1755
1687
1616
1598
1616
1613
1629
1625
1620
1610
1588
1611
1611
1602
1623
1610
1600
1616
1630
1616
1635
1646
1639
1642
1654
1637
1652
1687
1777
1939
2033
2125
2128
2065
1991
1918
1853
1793
1755
1722
1653
1616
1601
1595
1601
1615
1625
1623
1606
1605
1584
1591
1591
1589
1588
1595
1610
1598
1603
1610
1607
1609
1601
1681
1807
1958
2037
2075
2001
1947
1858
1795
1726
1703
1628
1579
1534
1552
1563
1597
1600
1603
1575
1535
1512
1534
1511
1520
1535
1535
1535
1563
1567
1553
1564
1588
1665
1787
1906
1993
1995
1963
1847
1781
1713
1680
1654
1600
1555
1519
1502
1509
1519
1526
1506
1507
1482
1474
1473
1488
1478
1520
1535
1535
1535
1555
1535
1535
1579
1683
1825
1955
2000
1967
1894
1795
1730
1694
1669
1617
1578
1515
1476
1474
1481
1498
1514
1499
1497
1488
1489
1488
1492
1490
1510
1506
1520
1535
1565
1565
1567
1615
1743
1867
1973
1968
1938
1847
1777
1703
1679
1618
1594
1535
1495
1485
1474
1502
1507
1518
1523
1523
1511
1515
1525
1535
1582
1586
1572
1564
1567
1535
1569
1597
1694
1807
1887
1919
1886
1831
1755
1711
1680
1661
1642
1598
1568
1566
1567
1607
1621
1648
1633
1641
1602
1616
1632
1650
1657
1645
1634
1625
1641
1639
1711
1808
1917
1989
2000
1967
1888
1845
1787
1761
1713
1655
1594
1577
1577
1579
1613
1616
1614
1591
1577
1567
1535
1559
1566
1571
1575
1566
1568
1571
1647
1749
1884
1968
1974
1921
1861
1791
1742
1689
1632
1587
1518
1475
1452
1460
1476
1475
1463
1463
1449
1456
1455
1458
1470
1495
1491
1477
1474
1491
1494
1563
1664
1794
1889
1896
1853
1786
1719
1663
1623
1575
1514
1435
1411
1393
1389
1405
1433
1434
1439
1453
1440
1455
1468
1466
1462
1487
1509
1507
1511
1513
1520
1520
1572
1712
1840
1936
1922
1869
1776
1712
1647
1586
1531
1498
1440
1397
1396
1418
1424
1453
1456
1457
1462
1456
1453
1445
1459
1459
1469
1493
1519
1481
1489
1502
1522
1535
1653
1756
1872
1916
1861
1807
1703
1642
1609
1584
1535
1514
1470
1467
1481
1519
1567
1589
1575
1535
1535
1522
1509
1520
1521
1519
1513
1517
1520
1535
1574
1651
1762
1866
1888
1845
1787
1701
1639
1610
1584
1531
1505
1467
1471
1489
1527
1573
1573
1571
1535
1535
1535
1535
1562
1577
1566
1563
1568
1535
1535
1535
1607
1680
1808
1925
1949
1926
1838
1741
1680
1648
1613
1583
1558
1528
1533
1556
1582
1597
1612
1589
1582
1582
1566
1570
1579
1600
1607
1609
1600
1614
1624
1603
1607
1622
1613
1675
1789
1933
2000
2000
1952
1871
1789
1735
1664
1648
1612
1573
1566
1564
1559
1575
1587
1600
1589
1584
1591
1579
1598
1611
1615
1605
1645
1648
1651
1647
1648
1648
1636
1639
1650
1660
1754
1885
1958
1983
1951
1885
1791
1732
1687
1670
1648
1626
1591
1580
1599
1642
1663
1666
1647
1647
1638
1635
1638
1642
1645
1643
1639
1646
1647
1648
1650
1669
1702
1780
1872
1953
1983
1958
1878
1792
1743
1730
1706
1675
1627
1629
1609
1621
1647
1664
1690
1687
1680
1683
1666
1664
1637
1633
1646
1663
1648
1647
1677
1681
1726
1823
1911
1971
1975
1947
1903
1835
1808
1763
1725
1679
1639
1611
1602
1607
1629
1667
1701
1676
1671
1648
1616
1617
1607
1600
1631
1666
1683
1701
1693
1679
1684
1740
1819
1926
1967
1956
1927
1879
1811
1759
1750
1735
1713
1697
1655
1658
1639
1665
1696
1682
1683
1661
1650
1648
1664
1664
1675
1668
1681
1690
1696
1683
1699
1697
1699
1712
1731
1821
1952
2021
2065
2031
1990
1908
1854
1810
1792
1767
1746
1723
1680
1675
1685
1686
1707
1711
1685
1683
1663
1664
1666
1662
1659
1665
1678
1680
1696
1682
1717
1699
1690
1687
1734
1843
1953
2031
2063
2032
1968
1888
1836
1814
1790
1758
1729
1682
1679
1685
1712
1717
1716
1699
1697
1678
1667
1665
1667
1663
1670
1659
1650
1673
1658
1651
1680
1730
1845
1949
2014
2016
1989
1952
1856
1798
1753
1742
1680
1653
1630
1631
1648
1664
1654
1648
1616
1622
1601
1607
1605
1615
1622
1625
1621
1616
1603
1606
1618
1721
1849
1968
2017
2011
1971
1902
1843
1774
1743
1699
1640
1609
1579
1567
1587
1595
1586
1597
1574
1535
1535
1528
1535
1555
1535
1535
1535
1553
1535
1555
1562
1615
1729
1855
1971
2014
1999
1946
1860
1815
1760
1701
1674
1623
1568
1535
1520
1523
1535
1535
1535
1516
1533
1509
1520
1509
1520
1515
1535
1535
1535
1535
1600
1590
1594
1594
1610
1619
1703
1859
1974
2053
2005
1954
1866
1777
1721
1685
1638
1590
1562
1528
1497
1535
1532
1574
1535
1558
1564
1535
1563
1554
1535
1563
1573
1575
1577
1590
1609
1588
1600
1667
1795
1918
1983
1998
1931
1840
1771
1703
1662
1623
1554
1520
1490
1500
1535
1552
1558
1578
1559
1535
1535
1533
1558
1572
1599
1614
1604
1586
1613
1594
1613
1711
1825
1950
2001
1978
1904
1822
1759
1713
1678
1619
1584
1535
1510
1519
1535
1535
1558
1555
1535
1535
1518
1515
1535
1535
1579
1600
1585
1585
1598
1603
1604
1613
1693
1821
1958
2032
2043
1991
1903
1825
1790
1760
1726
1648
1608
1561
1535
1534
1535
1555
1568
1535
1531
1520
1520
1535
1535
1565
1555
1595
1599
1605
1602
1603
1615
1614
1629
1651
1769
1910
2016
2043
2007
1936
1837
1778
1745
1700
1669
1630
1578
1556
1534
1535
1535
1563
1571
1584
1584
1570
1557
1568
1568
1579
1583
1595
1622
1643
1639
1621
1632
1630
1637
1709
1809
1945
2031
2064
1996
1915
1825
1776
1712
1677
1637
1600
1568
1584
1584
1602
1607
1598
1589
1599
1591
1598
1597
1584
1590
1614
1603
1616
1632
1636
1619
1615
1649
1750
1882

