1038
1127
1200
1226
1217
1171
1107
1039
1015
988
998
1006
1008
1072
1111
1168
1187
1240
1274
1296
1435
1792
2256
2638
2800
2719
2512
2220
1954
1712
1535
1421
1298
1172
1043
922
895
910
979
1068
1122
1146
1094
1071
985
971
949
944
944
963
1050
1069
1103
1136
1170
1202
1222
1259
1261
1391
1694
2159
2554
2755
2719
2521
2272
2012
1778
1607
1456
1358
1232
1108
985
921
927
986
1072
1130
1150
1139
1101
1041
1014
976
953
958
975
1006
1062
1088
1140
1168
1179
1202
1235
1331
1623
2036
2414
2628
2615
2453
2191
1935
1724
1558
1433
1329
1219
1095
986
925
924
983
1073
1162
1142
1141
1103
1044
1008
963
953
962
963
999
1085
1125
1168
1191
1233
1255
1277
1334
1531
1894
2275
2539
2608
2480
2256
2001
1791
1600
1470
1360
1258
1103
1014
976
1008
1078
1183
1219
1266
1227
1195
1101
1057
1032
1019
1014
1035
1062
1113
1150
1174
1216
1278
1491
1859
2221
2448
2512
2373
2185
1925
1732
1535
1433
1313
1216
1081
1006
973
1044
1129
1223
1242
1227
1203
1146
1104
1042
1039
1010
1038
1053
1105
1159
1179
1204
1246
1258
1362
1605
1961
2352
2559
2559
2416
2173
1938
1745
1584
1446
1341
1236
1125
1003
945
947
1002
1074
1161
1169
1162
1133
1063
1015
985
972
981
992
1037
1088
1136
1153
1190
1234
1253
1271
1278
1361
1590
1966
2354
2624
2681
2541
2305
2058
1811
1646
1509
1419
1296
1149
1047
959
948
976
1023
1088
1140
1168
1125
1091
1015
994
983
971
979
1008
1062
1092
1127
1168
1202
1255
1281
1296
1315
1343
1356
1456
1749
2145
2512
2737
2711
2538
2284
2030
1798
1613
1470
1351
1239
1089
976
933
914
970
1008
1092
1130
1109
1085
1039
985
989
1007
1008
1059
1089
1101
1111
1139
1168
1216
1251
1300
1325
1323
1328
1362
1531
1873
2273
2559
2693
2592
2363
2090
1841
1630
1473
1360
1264
1168
1056
955
943
949
1014
1054
1119
1139
1131
1084
1043
1008
979
976
1004
1005
1077
1139
1178
1265
1296
1337
1341
1358
1418
1609
1927
2281
2535
2610
2496
2287
2006
1774
1587
1424
1297
1177
1054
985
1018
1077
1171
1258
1308
1291
1260
1185
1136
1101
1071
1066
1067
1074
1100
1136
1158
1194
1282
1514
1873
2236
2429
2458
2363
2163
1927
1742
1563
1411
1287
1171
1088
1040
1049
1127
1235
1286
1314
1296
1246
1169
1117
1088
1100
1072
1070
1090
1091
1104
1194
1326
1613
1946
2208
2326
2288
2148
1950
1755
1605
1478
1377
1279
1175
1088
1072
1101
1168
1232
1280
1273
1261
1226
1190
1165
1150
1129
1136
1108
1132
1168
1233
1435
1717
2005
2187
2223
2173
2025
1851
1713
1598
1500
1401
1308
1185
1099
1045
1050
1055
1118
1145
1168
1145
1114
1063
1022
1006
992
994
1014
1061
1104
1098
1126
1150
1267
1488
1786
2043
2198
2198
2138
2007
1872
1767
1669
1600
1519
1426
1301
1181
1133
1119
1139
1142
1145
1141
1146
1107
1094
1078
1035
1042
1071
1086
1123
1152
1166
1172
1190
1216
1284
1451
1677
1933
2112
2176
2145
2077
1950
1843
1767
1680
1606
1487
1394
1269
1205
1179
1167
1171
1188
1200
1196
1163
1136
1129
1116
1133
1107
1106
1111
1107
1132
1163
1193
1214
1215
1227
1249
1310
1456
1671
1920
2081
2156
2159
2080
1985
1879
1795
1715
1633
1526
1410
1329
1271
1243
1239
1254
1266
1267
1243
1234
1205
1185
1170
1162
1189
1186
1216
1245
1280
1279
1296
1290
1328
1334
1359
1470
1654
1912
2084
2192
2168
2096
1979
1867
1775
1670
1575
1491
1379
1294
1229
1200
1209
1226
1224
1209
1193
1168
1142
1110
1105
1110
1093
1089
1097
1111
1146
1177
1195
1206
1233
1235
1264
1271
1347
1527
1799
2036
2219
2265
2208
2098
1959
1835
1723
1622
1488
1375
1276
1191
1135
1163
1167
1188
1174
1174
1152
1132
1098
1077
1072
1053
1066
1074
1095
1141
1163
1187
1216
1245
1264
1275
1290
1330
1467
1701
1997
2240
2350
2322
2206
2027
1853
1705
1584
1488
1362
1251
1185
1126
1136
1156
1200
1206
1213
1195
1163
1134
1123
1087
1079
1087
1088
1104
1136
1177
1187
1217
1237
1258
1278
1293
1315
1347
1415
1591
1866
2173
2403
2461
2387
2211
2019
1821
1670
1526
1401
1293
1195
1127
1114
1152
1195
1255
1281
1271
1245
1173
1154
1146
1113
1121
1120
1123
1140
1187
1218
1246
1267
1310
1334
1347
1395
1442
1498
1665
1968
2331
2608
2704
2624
2397
2133
1888
1653
1479
1328
1203
1103
1067
1083
1147
1241
1312
1308
1283
1231
1163
1134
1104
1099
1074
1087
1104
1131
1163
1200
1231
1227
1247
1323
1520
1884
2283
2581
2674
2593
2377
2128
1872
1670
1518
1351
1232
1119
1038
1005
1042
1105
1178
1223
1233
1231
1186
1129
1101
1092
1056
1063
1072
1099
1113
1152
1190
1222
1251
1280
1299
1426
1727
2112
2459
2672
2640
2447
2199
1922
1693
1514
1392
1263
1155
1072
1035
1071
1136
1232
1257
1262
1245
1219
1131
1135
1105
1078
1072
1079
1098
1114
1167
1175
1184
1204
1237
1357
1627
2029
2385
2585
2540
2358
2087
1822
1599
1424
1297
1184
1075
999
975
1034
1108
1209
1280
1279
1274
1221
1166
1103
1072
1058
1047
1060
1088
1149
1170
1200
1242
1278
1278
1322
1441
1714
2132
2501
2641
2610
2374
2100
1828
1633
1485
1360
1274
1153
1068
1035
1069
1123
1216
1264
1277
1252
1200
1141
1101
1072
1057
1058
1078
1097
1157
1190
1202
1226
1275
1398
1713
2096
2410
2501
2405
2187
1931
1710
1520
1397
1301
1191
1104
1002
1022
1104
1222
1298
1355
1349
1287
1209
1169
1130
1117
1119
1125
1122
1142
1200
1206
1250
1373
1671
2085
2438
2592
2537
2330
2073
1819
1627
1491
1392
1295
1174
1072
993
1011
1099
1163
1232
1251
1215
1181
1121
1078
1045
1008
1007
1031
1063
1122
1137
1184
1211
1334
1641
2093
2475
2654
2608
2401
2131
1904
1699
1567
1470
1385
1286
1152
1061
1015
1043
1104
1181
1236
1232
1199
1126
1083
1019
999
1019
1067
1097
1159
1197
1242
1247
1267
1362
1658
2122
2474
2621
2547
2343
2033
1777
1575
1451
1369
1316
1220
1119
1015
961
1015
1078
1194
1210
1178
1147
1073
1039
1022
1008
1036
1036
1072
1136
1184
1207
1373
1241
1111
1023
993
1023
1094
1200
1251
1247
1221
1169
1120
1097
1073
1073
1074
1093
1153
1195
1212
1236
1259
1271
1287
1354
1594
2009
2391
2640
2680
2530
2306
2043
1854
1671
1531
1412
1302
1162
1053
988
1006
1022
1120
1194
1222
1183
1133
1071
1023
1006
970
953
964
1006
1072
1110
1168
1213
1242
1275
1315
1347
1458
1795
2227
2585
2752
2703
2495
2252
1984
1776
1616
1488
1372
1238
1122
1023
1009
1023
1110
1199
1218
1205
1167
1100
1056
1008
989
976
996
1005
1049
1075
1120
1136
1178
1181
1211
1334
1627
2064
2422
2602
2581
2403
2162
1916
1699
1535
1413
1312
1163
1064
1008
1041
1103
1226
1270
1293
1254
1172
1119
1072
1035
1023
1035
1054
1091
1131
1158
1182
1215
1251
1415
1767
2173
2510
2615
2522
2326
2054
1808
1591
1478
1354
1263
1106
1009
958
987
1072
1199
1229
1238
1215
1137
1089
1058
1040
1022
1019
1040
1072
1130
1159
1200
1223
1232
1270
1370
1687
2098
2493
2690
2657
2493
2239
1975
1754
1578
1453
1345
1238
1088
985
967
1005
1066
1143
1210
1199
1168
1111
1047
1045
995
1001
1008
1033
1078
1120
1162
1181
1211
1238
1257
1358
1611
2026
2409
2626
2643
2474
2241
1995
1761
1599
1456
1354
1249
1109
1008
979
1009
1070
1150
1202
1214
1169
1099
1055
1003
977
970
983
1023
1101
1140
1147
1181
1213
1323
1616
2006
2345
2452
2413
2231
1986
1774
1584
1434
1330
1209
1089
1015
991
1052
1141
1263
1308
1296
1278
1190
1118
1087
1068
1072
1085
1088
1101
1147
1165
1183
1307
1571
1963
2288
2453
2401
2238
1990
1776
1617
1470
1361
1233
1118
999
949
1006
1068
1191
1251
1249
1234
1207
1098
1073
1088
1066
1070
1068
1131
1168
1200
1231
1235
1296
1523
1890
2271
2491
2515
2385
2199
1969
1770
1629
1494
1392
1273
1139
1037
979
967
1045
1107
1178
1211
1199
1163
1091
1055
1044
1034
1061
1066
1136
1154
1183
1223
1239
1249
1330
1579
1955
2332
2545
2547
2388
2182
1959
1750
1606
1515
1409
1302
1159
1057
1008
1038
1102
1189
1233
1238
1205
1197
1139
1104
1087
1070
1081
1085
1141
1189
1200
1219
1247
1304
1499
1833
2183
2416
2461
2333
2125
1897
1694
1568
1455
1340
1231
1101
1003
999
1077
1185
1278
1296
1248
1218
1166
1123
1087
1083
1075
1098
1122
1169
1191
1210
1254
1398
1735
2118
2365
2435
2339
2157
1931
1730
1599
1473
1360
1243
1114
1052
1020
1063
1153
1239
1266
1266
1218
1157
1104
1085
1073
1072
1079
1103
1151
1178
1200
1232
1241
1304
1484
1849
2257
2512
2593
2448
2251
1998
1798
1649
1526
1424
1296
1159
1023
974
977
1051
1114
1191
1197
1194
1140
1083
1055
1013
1008
1018
1055
1090
1136
1164
1184
1220
1243
1264
1290
1442
1761
2166
2459
2541
2446
2241
1991
1776
1619
1506
1421
1298
1175
1056
973
975
1050
1162
1264
1317
1315
1296
1232
1162
1137
1120
1102
1115
1130
1153
1186
1198
1224
1225
1234
1295
1442
1783
2203
2528
2649
2551
2327
2033
1776
1566
1423
1321
1211
1106
993
946
1001
1112
1253
1313
1333
1302
1243
1184
1123
1109
1089
1114
1120
1125
1163
1203
1205
1234
1322
1579
1965
2314
2480
2459
2288
2037
1808
1589
1439
1324
1223
1108
991
953
991
1093
1226
1265
1280
1262
1232
1141
1095
1083
1072
1059
1074
1135
1170
1222
1243
1264
1286
1325
1459
1807
2254
2608
2736
2662
2430
2175
1933
1725
1570
1450
1335
1206
1089
1008
986
1034
1110
1197
1232
1236
1200
1127
1085
1047
1008
1033
1053
1083
1152
1168
1190
1251
1271
1296
1322
1430
1711
2131
2503
2725
2703
2505
2241
1968
1770
1590
1452
1339
1232
1102
1036
1008
1047
1134
1215
1286
1277
1262
1191
1121
1097
1074
1072
1095
1110
1119
1205
1218
1232
1258
1331
1535
1904
2256
2482
2490
2358
2139
1888
1681
1518
1387
1278
1146
1059
998
1019
1101
1210
1291
1296
1270
1200
1147
1104
1069
1056
1054
1071
1077
1105
1153
1189
1243
1412
1754
2150
2421
2512
2407
2226
1970
1770
1590
1476
1347
1231
1106
1040
997
1066
1127
1247
1259
1248
1219
1176
1118
1107
1082
1085
1098
1104
1150
1181
1227
1244
1248
1305
1463
1800
2192
2483
2606
2525
2341
2106
1893
1702
1558
1415
1298
1168
1071
989
976
1023
1089
1178
1189
1201
1161
1094
1038
1008
993
968
995
1008
1071
1107
1130
1158
1199
1249
1391
1707
2098
2419
2559
2512
2334
2121
1893
1687
1526
1431
1307
1165
1051
977
965
1013
1077
1161
1181
1158
1115
1055
994
977
959
960
982
1041
1079
1115
1151
1175
1286
1520
1891
2230
2448
2439
2309
2064
1826
1625
1453
1358
1239
1122
1018
979
1023
1105
1200
1245
1261
1233
1191
1130
1081
1057
1051
1040
1056
1072
1126
1155
1171
1272
1520
1890
2233
2419
2418
2251
2012
1763
1577
1425
1328
1202
1089
1003
959
995
1047
1169
1217
1225
1211
1169
1099
1077
1041
1040
1036
1077
1105
1139
1177
1201
1234
1296
1508
1870
2259
2543
2583
2445
2208
1937
1712
1509
1369
1245
1114
977
895
854
889
944
1077
1150
1174
1168
1124
1097
1023
995
990
987
1009
1078
1133
1167
1211
1266
1323
1366
1523
1843
2256
2610
2721
2643
2415
2141
1891
1665
1477
1351
1232
1098
993
958
976
1043
1167
1250
1251
1250
1186
1094
1037
1019
997
1045
1072
1141
1157
1185
1201
1214
1307
1577
1981
2359
2553
2544
2093
1821
1602
1454
1325
1219
1094
969
912
944
1034
1159
1229
1232
1223
1185
1079
1044
1031
1009
1037
1066
1139
1160
1182
1216
1246
1395
1708
2128
2497
2651
2580
2349
2096
1840
1648
1490
1367
1231
1122
987
929
955
1083
1015
993
989
1014
1023
1083
1130
1169
1207
1247
1273
1302
1398
1702
2192
2686
2963
2976
2769
2462
2135
1875
1651
1492
1367
1246
1075
953
909
931
989
1109
1169
1186
1159
1117
1019
990
954
942
947
963
1053
1089
1137
1163
1215
1238
1264
1289
1379
1717
2227
2672
2912
2879
2670
2348
2065
1815
1623
1455
1360
1206
1058
940
880
892
961
1070
1137
1171
1136
1102
1008
963
937
943
929
944
1011
1060
1132
1168
1216
1236
1273
1299
1467
1837
2320
2733
2901
2789
2544
2237
1966
1744
1585
1437
1329
1168
1045
950
948
1050
1139
1239
1263
1232
1178
1094
1021
994
975
963
983
1021
1083
1115
1136
1169
1319
1648
2108
2510
2701
2640
2416
2131
1874
1653
1500
1361
1242
1079
988
961
1057
1171
1279
1328
1307
1248
1169
1105
1057
1034
1018
1035
1051
1104
1127
1138
1171
1296
1627
2119
2525
2754
2703
2515
2254
1995
1776
1613
1491
1360
1214
1072
991
965
1011
1097
1199
1215
1215
1150
1072
1010
983
958
958
972
1000
1070
1087
1136
1147
1180
1326
1686
2082
2448
2640
2663
2478
2261
2042
1865
1703
1583
1430
1280
1115
1005
951
944
976
1033
1062
1066
1023
1009
989
976
956
974
960
1003
1049
1090
1107
1110
1147
1185
1287
1503
1822
2090
2265
2321
2267
2146
2001
1879
1775
1690
1572
1444
1330
1232
1194
1163
1186
1218
1213
1217
1200
1192
1168
1143
1136
1120
1125
1137
1142
1199
1220
1245
1280
1296
1384
1517
1712
1904
1985
2034
2028
1971
1917
1851
1793
1739
1683
1602
1535
1507
1488
1477
1479
1478
1484
1451
1440
1425
1403
1380
1386
1405
1383
1403
1410
1403
1444
1511
1610
1730
1838
1895
1920
1925
1891
1850
1791
1774
1728
1691
1638
1605
1573
1566
1584
1580
1575
1587
1575
1554
1526
1531
1526
1507
1526
1520
1520
1535
1579
1589
1587
1591
1619
1659
1739
1813
1899
1938
1948
1934
1910
1889
1862
1818
1811
1771
1728
1702
1671
1677
1654
1668
1661
1642
1630
1621
1615
1597
1571
1575
1535
1566
1559
1563
1561
1563
1563
1563
1600
1648
1712
1753
1841
1904
1920
1920
1907
1891
1893
1879
1859
1869
1792
1772
1746
1744
1744
1744
1761
1745
1729
1733
1710
1696
1662
1648
1632
1616
1616
1626
1621
1619
1677
1747
1866
2006
2124
2208
2237
2250
2218
2175
2150
2108
2032
1971
1886
1840
1743
1728
1699
1683
1670
1649
1593
1568
1515
1475
1453
1424
1408
1377
1360
1363
1351
1355
1398
1520
1686
1900
2114
2255
2307
2289
2234
2165
2075
1996
1903
1802
1680
1578
1493
1457
1435
1435
1410
1389
1355
1307
1262
1216
1201
1155
1136
1129
1146
1152
1147
1218
1323
1523
1778
2027
2207
2261
2236
2128
2000
1872
1771
1675
1535
1412
1328
1247
1232
1210
1232
1256
1234
1214
1184
1167
1115
1089
1088
1077
1079
1099
1107
1170
1253
1435
1698
1937
2128
2191
2128
2032
1893
1787
1680
1593
1512
1392
1312
1257
1238
1257
1286
1311
1335
1328
1287
1269
1245
1220
1203
1213
1216
1210
1219
1310
1455
1689
1930
2110
2172
2133
2042
1931
1835
1724
1644
1535
1457
1404
1370
1369
1424
1441
1460
1453
1439
1405
1374
1342
1328
1314
1325
1306
1302
1343
1481
1699
1929
2137
2257
2265
2192
2082
1952
1872
1780
1669
1568
1485
1405
1371
1379
1393
1411
1413
1386
1369
1339
1309
1293
1280
1277
1262
1262
1268
1318
1456
1657
1898
2107
2239
2247
2183
2103
1978
1895
1782
1710
1616
1497
1433
1360
1341
1360
1361
1376
1374
1341
1334
1289
1264
1236
1230
1232
1227
1235
1240
1351
1445
1669
1930
2096
2169
2166
2107
2001
1911
1821
1763
1679
1591
1493
1437
1375
1375
1383
1390
1390
1377
1347
1322
1293
1264
1253
1241
1239
1238
1267
1315
1412
1600
1817
2010
2101
2117
2075
1989
1873
1805
1741
1658
1584
1515
1486
1502
1535
1615
1634
1620
1535
1482
1417
1339
1328
1306
1274
1264
1268
1307
1472
1703
1950
2126
2215
2173
2080
1961
1851
1764
1669
1587
1473
1382
1319
1297
1319
1328
1361
1342
1324
1296
1268
1234
1200
1188
1190
1157
1163
1151
1179
1296
1502
1776
2096
2315
2401
2366
2278
2166
2001
1872
1774
1652
1519
1407
1307
1232
1214
1232
1231
1227
1207
1157
1120
1058
1040
1014
1023
1023
1056
1086
1102
1104
1151
1259
1509
1859
2202
2417
2477
2404
2276
2129
1967
1845
1698
1535
1403
1263
1168
1109
1120
1164
1175
1198
1182
1151
1137
1108
1073
1062
1062
1072
1089
1152
1189
1221
1233
1265
1277
1345
1525
1838
2202
2463
2546
2502
2333
2143
1962
1809
1662
1566
1403
1293
1188
1137
1130
1149
1205
1213
1223
1179
1152
1118
1109
1078
1083
1086
1088
1107
1141
1179
1195
1245
1264
1302
1321
1413
1646
1921
2210
2393
2450
2389
2263
2101
1954
1787
1675
1533
1445
1335
1291
1275
1325
1353
1377
1387
1361
1344
1302
1270
1270
1258
1285
1304
1355
1402
1406
1426
1507
1714
1945
2129
2243
2221
2158
1993
1849
1713
1571
1445
1339
1276
1291
1309
1360
1426
1435
1440
1412
1329
1317
1283
1257
1249
1248
1235
1271
1293
1309
1327
1343
1374
1491
1775
2095
2372
2509
2505
2407
2237
2077
1925
1798
1695
1583
1473
1360
1298
1277
1276
1293
1311
1285
1248
1211
1175
1138
1113
1104
1135
1120
1143
1152
1201
1210
1243
1379
1649
1935
2185
2332
2338
2234
2114
1958
1819
1714
1611
1495
1387
1293
1243
1235
1246
1281
1283
1259
1230
1200
1162
1133
1135
1130
1110
1122
1139
1188
1200
1228
1287
1387
1606
1862
2094
2213
2209
2127
2017
1902
1785
1698
1612
1534
1427
1362
1330
1344
1359
1365
1370
1360
1330
1305
1274
1261
1250
1239
1265
1262
1250
1274
1280
1315
1337
1397
1535
1728
1859
1943
1959
1904
1834
1755
1695
1639
1607
1564
1513
1488
1474
1485
1498
1506
1509
1498
1487
1467
1453
1433
1445
1449
1443
1455
1456
1466
1456
1461
1477
1501
1533
1601
1722
1821
1910
1918
1922
1865
1846
1770
1740
1713
1685
1643
1629
1624
1628
1658
1650
1669
1646
1633
1619
1616
1611
1587
1584
1597
1582
1565
1563
1565
1558
1584
1586
1575
1657
1734
1818
1891
1933
1936
1915
1877
1834
1789
1759
1719
1696
1676
1686
1675
1680
1711
1699
1713
1701
1664
1648
1639
1648
1616
1623
1600
1596
1600
1601
1596
1601
1606
1618
1711
1793
1863
1968
2038
2081
2066
2011
1971
1922
1873
1819
1796
1764
1750
1738
1757
1753
1740
1735
1701
1680
1638
1638
1597
1584
1569
1535
1533
1522
1521
1515
1506
1533
1630
1743
1908
2076
2161
2195
2167
2117
2032
1943
1886
1803
1726
1666
1631
1634
1623
1630
1617
1597
1555
1495
1442
1424
1362
1346
1312
1297
1286
1273
1291
1277
1291
1343
1457
1642
1827
1999
2087
2093
2021
1954
1844
1743
1680
1600
1504
1457
1442
1433
1455
1457
1456
1459
1417
1389
1360
1318
1295
1306
1278
1269
1297
1251
1285
1337
1390
1483
1627
1820
1968
2054
2062
1979
1884
1789
1701
1607
1525
1475
1458
1459
1505
1584
1642
1653
1639
1600
1535
1484
1443
1405
1406
1376
1373
1366
1402
1494
1705
1931
2144
2237
2238
2185
2067
1953
1863
1763
1654
1562
1451
1395
1360
1370
1365
1375
1383
1360
1338
1281
1248
1211
1207
1200
1185
1200
1198
1215
1248
1335
1491
1749
2029
2231
2300
2261
2192
2065
1936
1849
1775
1670
1582
1456
1360
1293
1269
1276
1265
1254
1241
1211
1187
1146
1104
1086
1093
1083
1099
1118
1141
1198
1259
1447
1734
2014
2167
2240
2222
2103
1987
1871
1764
1691
1590
1473
1360
1281
1232
1228
1255
1263
1262
1253
1237
1206
1179
1161
1165
1171
1168
1202
1251
1275
1309
1328
1339
1402
1575
1858
2130
2302
2336
2265
2142
1987
1872
1751
1651
1557
1424
1324
1250
1193
1213
1222
1232
1234
1202
1178
1175
1153
1136
1138
1146
1157
1206
1242
1267
1296
1308
1316
1354
1367
1435
1619
1886
2175
2375
2427
2352
2219
2066
1904
1787
1698
1568
1459
1343
1294
1289
1309
1318
1347
1346
1337
1299
1296
1252
1248
1237
1233
1233
1251
1269
1321
1341
1337
1343
1369
1493
1705
1965
2256
2375
2378
2287
2137
1986
1837
1739
1609
1488
1385
1310
1298
1310
1334
1370
1355
1347
1306
1275
1238
1217
1215
1183
1195
1206
1234
1243
1288
1343
1477
1738
2067
2327
2428
2416
2338
2207
2090
1994
1904
1791
1603
1450
1296
1201
1142
1121
1111
1126
1117
1123
1102
1095
1098
1094
1121
1162
1212
1232
1266
1286
1358
1579
1875
2192
2394
2416
2346
2192
2002
1833
1691
1589
1457
1332
1221
1185
1170
1218
1265
1323
1338
1328
1290
1226
1189
1177
1178
1180
1179
1191
1212
1253
1327
1557
1901
2223
2454
2513
2391
2228
2002
1810
1629
1474
1305
1162
1073
1056
1115
1168
1267
1296
1282
1241
1174
1129
1133
1114
1121
1135
1202
1245
1249
1257
1315
1475
1818
2225
2535
2655
2559
2377
2149
1920
1753
1621
1487
1385
1233
1105
1011
993
1043
1135
1217
1261
1213
1174
1104
1070
1023
1043
1038
1062
1130
1186
1218
1264
1287
1323
1375
1535
1886
2301
2626
2760
2689
2479
2256
2020
1835
1695
1587
1488
1350
1232
1165
1132
1184
1221
1254
1251
1223
1181
1125
1075
1057
1054
1074
1118
1178
1239
1269
1328
1373
1393
1414
1437
1426
1449
1489
1720
2065
2429
2682
2704
2626
2423
2221
2032
1895
1776
1674
1535
1395
1319
1245
1245
1254
1276
1301
1296
1252
1179
1129
1092
1065
1072
1092
1120
1199
1203
1232
1263
1277
1315
1332
1365
1386
1388
1418
1525
1765
2105
2411
2582
2598
2490
2313
2127
1971
1830
1742
1594
1535
1459
1426
1438
1440
1437
1422
1374
1306
1234
1187
1151
1137
1154
1170
1167
1178
1237
1279
1299
1334
1328
1327
1327
1313
1300
1291
1343
1481
1712
2011
2245
2342
2317
2218
2071
1906
1779
1637
1525
1425
1337
1309
1337
1360
1431
1499
1535
1559
1573
1535
1533
1474
1443
1393
1359
1343
1330
1313
1314
1312
1329
1443
1644
1895
2133
2272
2293
2199
2031
1872
1725
1596
1456
1350
1264
1209
1213
1244
1301
1372
1408
1393
1366
1334
1304
1274
1279
1293
1321
1360
1379
1382
1381
1394
1385
1383
1456
1622
1917
2214
2438
2494
2435
2288
2106
1883
1726
1572
1437
1313
1219
1143
1141
1143
1205
1285
1334
1328
1313
1278
1241
1207
1185
1191
1211
1242
1279
1319
1335
1346
1403
1535
1776
2018
2190
2237
2175
2071
1922
1794
1700
1590
1479
1409
1338
1323
1337
1361
1413
1472
1447
1462
1486
1399
1360
1291
1269
1275
1281
1329
1364
1389
1441
1590
1797
2004
2151
2221
2141
2031
1886
1739
1673
1585
1491
1438
1398
1345
1391
1397
1429
1437
1437
1407
1390
1345
1331
1319
1313
1319
1329
1331
1354
1395
1454
1613
1825
2033
2190
2276
2261
2207
2027
1901
1841
1776
1719
1617
1524
1471
1429
1425
1459
1456
1453
1441
1413
1376
1334
1311
1291
1281
1273
1267
1281
1323
1425
1610
1813
1998
2098
2124
2082
1983
1877
1785
1723
1679
1597
1478
1417
1395
1392
1385
1405
1388
1410
1371
1306
1300
1263
1245
1258
1296
1280
1289
1313
1424
1601
1827
2000
2124
2133
2075
1990
1883
1791
1709
1655
1535
1450
1363
1328
1286
1290
1323
1326
1296
1268
1239
1214
1185
1167
1163
1170
1173
1199
1243
1266
1296
1392
1604
1863
2101
2225
2248
2202
2105
1978
1874
1804
1700
1603
1485
1360
935
1200
1200
1211
1202
1222
1202
1195
1160
1136
1134
1119
1115
1129
1138
1200
1225
1249
1275
1280
1298
1360
1529
1813
2078
2290
2351
2313
2214
2065
1933
1825
1730
1634
1503
1360
1255
1185
1168
1178
1213
1229
1241
1246
2922
2694
2342
2002
1727
1523
1376
1296
1183
1095
1057
1075
1134
1232
1311
1342
1313
1279
1222
1164
1150
1107
1111
1135
1155
1202
1270
1283
1342
1357
1383
1392
1402
1509
1855
2325
2742
2943
2837
2590
2240
1922
1670
1491
1360
1258
1159
1085
1050
1088
1168
1249
1300
1305
1287
1247
1182
1168
1135
1154
1142
1166
1185
1236
1249
1295
1325
1354
1372
1435
1622
2022
2492
2804
2864
2675
2384
2079
1786
1557
1420
1297
1199
1136
1078
1079
1143
1255
1325
1360
1351
1337
1286
1235
1207
1200
1197
1200
1232
1245
1283
1311
1331
1346
1372
1402
1584
1978
2438
2790
2894
2721
2434
2128
1833
1611
1453
1362
1242
1151
1097
1120
1188
1306
1377
1397
1395
1341
1276
1237
1212
1203
1204
1231
1237
1263
1316
1332
1359
1365
1402
1450
1663
2053
2495
2774
2784
2602
2281
1994
1737
1535
1430
1328
1229
1141
1094
1136
1192
1273
1337
1351
1327
1247
1173
1142
1083
1039
1010
1037
1021
1059
1075
1156
1186
1222
1291
1394
1692
2133
2545
2783
2727
2491
2209
1926
1700
1564
1437
1328
1235
1209
1241
1315
1465
1565
1570
1523
1426
1339
1262
1198
1159
1154
1161
1187
1200
1194
1230
1290
1478
1855
2288
2594
2641
2475
2209
1935
1680
1487
1357
1264
1135
1053
1035
1115
1239
1361
1435
1455
1424
1367
1286
1243
1182
1152
1134
1125
1155
1230
1266
1328
1349
1364
1489
1831
2282
2626
2733
2599
2313
2001
1727
1520
1404
1333
1290
1188
1122
1090
1108
1167
1221
1291
1329
1331
1311
1267
1203
1149
1136
1130
1104
1129
1132
1200
1268
1371
1624
2031
2415
2646
2653
2438
2192
1903
1681
1507
1412
1312
1200
1131
1089
1134
1226
1334
1361
1392
1377
1341
1264
1215
1194
1174
1155
1158
1187
1200
1211
1243
1295
1437
1808
2283
2657
2785
2679
2448
2138
1879
1660
1518
1415
1279
1167
1093
1088
1125
1216
1314
1360
1359
1319
1203
1114
1078
1047
1050
1103
1171
1249
1313
1371
1535
1898
2369
2751
2901
2778
2507
2192
1888
1667
1466
1351
1216
1103
1045
1059
1142
1282
1381
1440
1451
1411
1333
1254
1213
1169
1173
1181
1179
1184
1214
1315
1644
2082
2485
2669
2622
2422
2177
1918
1737
1601
1513
1377
1231
1134
1045
1053
1154
1264
1344
1318
1289
1231
1157
1125
1127
1107
1124
1159
1187
1214
1266
1456
1819
2303
2624
2711
2614
2385
2140
1903
1717
1567
1429
1284
1147
1015
915
901
937
1011
1086
1129
1122
1077
1019
987
971
974
1013
1065
1100
1142
1173
1262
1522
1964
2384
2640
2656
2474
2193
1967
1791
1619
1503
1418
1298
1169
1040
974
981
1047
1173
1233
1269
1249
1219
1150
1124
1094
1107
1104
1157
1194
1243
1261
1296
1392
1694
2148
2529
2707
2659
2448
2175
1925
1754
1600
1502
1407
1280
1142
1019
965
984
1078
1147
1216
1232
1200
1169
1103
1064
1034
1051
1045
1115
1159
1210
1232
1268
1308
1391
1648
2081
2496
2723
2718
2509
2258
1998
1797
1671
1582
1469
1332
1208
1095
1021
1039
1124
1193
1262
1260
1237
1191
1119
1082
1072
1075
1083
1104
1151
1215
1263
1306
1335
1353
1382
1456
1772
2233
2624
2842
2761
2581
2288
2043
1839
1703
1588
1488
1341
1194
1073
1013
1015
1094
1173
1232
1233
1213
1146
1103
1062
1023
1035
1040
1063
1142
1190
1241
1269
1293
1317
1339
1455
1758
2224
2641
2848
2829
2629
2353
2096
1889
1721
1596
1471
1315
1175
1053
1009
1040
1118
1181
1243
1242
1189
1139
1070
1010
992
976
967
1006
1040
1104
1147
1200
1227
1277
1333
1518
1920
2410
2795
2947
2835
2581
2284
2018
1826
1639
1513
1383
1232
1103
1023
1040
1113
1210
1279
1296
1244
1182
1141
1088
1079
1079
1088
1147
1182
1230
1264
1303
1351
1395
1587
1968
2385
2683
2771
2624
2383
2109
1855
1673
1515
1391
1250
1102
1011
1008
1076
1152
1235
1269
1261
1216
1159
1103
1072
1053
1041
1070
1078
1141
1162
1191
1222
1286
1500
1901
2336
2678
2771
2670
2447
2171
1914
1712
1535
1431
1287
1168
1077
1060
1075
1122
1202
1247
1235
1200
1136
1077
1040
1021
1022
1041
1088
1125
1159
1183
1209
1299
1583
2063
2469
2716
2719
2553
2303
2043
1840
1669
1558
1443
1310
1189
1104
1078
1109
1183
1255
1292
1278
1221
1155
1123
1097
1075
1072
1072
1099
1154
1198
1219
1246
1394
1779
2228
2624
2759
2683
2461
2207
1947
1761
1587
1475
1346
1221
1107
1040
1060
1118
1177
1219
1221
1197
1136
1087
1058
1023
1010
1040
1065
1113
1145
1175
1231
1445
1851
2306
2641
2704
2606
2354
2097
1859
1650
1502
1377
1243
1105
1023
1006
1071
1142
1249
1302
1294
1243
1227
1161
1136
1097
1104
1125
1120
1136
1183
1204
1385
1759
2224
2559
2705
2643
2448
2191
1936
1710
1535
1398
1274
1123
1040
1011
1042
1114
1221
1281
1274
1269
1218
1167
1105
1073
1047
1051
1060
1069
1091
1161
1329
1680
2116
2481
2642
2627
2458
2217
1957
1754
1600
1438
1280
1149
1056
1059
1079
1146
1237
1264
1272
1231
1179
1130
1105
1083
1073
1104
1107
1119
1147
1248
1500
1865
2217
2415
2467
2358
2185
1975
1793
1655
1520
1367
1263
1161
1106
1127
1181
1216
1267
1278
1253
1211
1156
1104
1091
1096
1107
1106
1127
1149
1235
1411
1710
2009
2224
2315
2281
2161
2000
1850
1740
1648
1515
1410
1287
1196
1152
1153
1173
1215
1223
1205
1187
1152
1141
1108
1108
1104
1090
1110
1134
1165
1200
1242
1391
1635
1907
2100
2198
2207
2112
1998
1886
1797
1703
1604
1494
1383
1292
1264
1221
1228
1241
1239
1243
1233
1216
1200
1174
1153
1141
1133
1149
1173
1209
1225
1235
1254
1280
1392
1584
1813
1985
2099
2119
2074
1987
1893
1809
1756
1693
1589
1493
1415
1373
1331
1321
1337
1338
1334
1314
1296
1281
1280
1246
1243
1234
1241
1247
1261
1317
1328
1341
1367
1382
1413
1503
1670
1872
2064
2155
2183
2146
2100
2002
1922
1872
1791
1711
1629
1533
1483
1446
1455
1441
1424
1415
1394
1367
1335
1321
1279
1265
1264
1247
1266
1259
1266
1312
1319
1339
1346
1360
1382
1488
1673
1885
2123
2266
2331
2291
2236
2118
2043
1968
1867
1759
1651
1523
1468
1427
1397
1389
1374
1364
1318
1274
1239
1212
1177
1167
1168
1165
1174
1205
1220
1235
1264
1284
1304
1318
1337
1354
1417
1535
1794
2064
2320
2458
2461
2382
2273
2126
2009
1890
1763
1637
1488
1389
1296
1264
1259
1278
1260
1232
1232
1167
1136
1118
1091
1071
1074
1104
1104
1155
1191
1210
1236
1257
1297
1313
1329
1338
1379
1495
1763
2098
2409
2608
2654
2559
2396
2195
1994
1837
1707
1557
1387
1261
1183
1133
1137
1167
1186
1194
1172
1139
1105
1066
1045
1018
1041
1041
1088
1135
1167
1198
1200
1259
1298
1330
1349
1374
1471
1666
2010
2399
2715
2819
2723
2522
2266
2042
1839
1661
1513
1370
1234
1149
1097
1111
1156
1227
1249
1244
1221
1163
1115
1086
1071
1072
1090
1104
1152
1200
1239
1264
1299
1342
1370
1389
1421
1438
1535
1779
2180
2597
2912
2949
2800
2546
2266
2025
1822
1666
1525
1386
1266
1168
1165
1182
1238
1301
1343
1315
1281
1221
1152
1135
1121
1123
1133
1155
1206
1225
1264
1316
1344
1374
1393
1415
1434
1562
1855
2308
2720
2979
2991
2805
2509
2221
1968
1758
1620
1455
1317
1175
1103
1092
1122
1226
1264
1316
1296
1230
1166
1136
1091
1088
1081
1076
1113
1153
1201
1232
1262
1306
1334
1372
1383
1424
1606
1962
2439
2832
3039
2955
2701
2397
2107
1849
1670
1520
1372
1220
1105
1069
1071
1146
1231
1289
1292
1265
1189
1147
1089
1078
1049
1045
1077
1091
1147
1198
1238
1267
1310
1345
1360
1381
1555
1905
2374
2799
3009
2933
2689
2379
2080
1839
1661
1508
1373
1233
1119
1052
1072
1124
1187
1264
1269
1232
1185
1114
1078
1056
1042
1040
1058
1081
1138
1175
1207
1270
1279
1326
1361
1566
1921
2373
2743
2879
2774
2502
2217
1936
1717
1571
1456
1333
1189
1079
1040
1050
1120
1197
1248
1265
1223
1186
1117
1075
1057
1065
1067
1072
1136
1180
1232
1277
1282
1325
1338
1397
1622
2042
2480
2781
2853
2699
2416
2115
1865
1668
1535
1418
1297
1166
1088
1059
1092
1177
1250
1292
1275
1242
1174
1136
1088
1072
1055
1069
1104
1147
1198
1244
1291
1310
1317
1357
1491
1829
2274
2651
2813
2734
2480
2215
1957
1757
1633
1520
1382
1264
1127
1070
1094
1168
1222
1283
1296
1273
1190
1157
1104
1077
1072
1071
1102
1143
1187
1232
1259
1268
1351
1510
1902
2291
2559
2640
2480
2240
1986
1772
1608
1493
1383
1260
1119
1054
1082
1159
1269
1333
1345
1328
1262
1190
1143
1136
1123
1111
1131
1162
1210
1263
1261
1295
1333
1509
1865
2320
2622
2702
2587
2331
2073
1841
1670
1559
1456
1341
1200
1074
1008
1040
1123
1200
1242
1234
1221
1175
1110
1093
1063
1069
1072
1100
1162
1205
1249
1280
1301
1335
1423
1687
2127
2544
2751
2735
2507
2242
2003
1805
1671
1567
1488
1349
1185
1044
995
1012
1103
1171
1222
1243
1214
1155
1104
1088
1055
1047
1061
1104
1158
1201
1249
1285
1302
1339
1333
1406
1602
1978
2410
2701
2749
2602
2322
2079
1869
1726
1615
1525
1401
1258
1114
1050
1039
1102
1162
1215
1247
1223
1189
1140
1109
1088
1077
1092
1108
1158
1206
1232
1291
1334
1376
1365
1379
1424
1507
1825
2273
2645
2813
2704
2491
2223
1986
1807
1693
1583
1456
1309
1162
1072
1058
1101
1169
1232
1267
1252
1214
1164
1120
1102
1100
1088
1101
1135
1200
1235
1283
1321
1329
1363
1371
1456
1710
2128
2535
2727
2705
2505
2224
1967
1786
1651
1562
1428
1282
1139
1087
1086
1141
1245
1298
1298
1273
1232
1161
1121
1104
1089
1087
1104
1149
1207
1236
1264
1311
1344
1387
1617
2011
2462
2756
2784
2622
2341
2091
1858
1710
1596
1483
1351
1178
1079
1023
1042
1134
1230
1268
1267
1248
1166
1104
1073
1063
1066
1070
1077
1131
1190
1234
1286
1317
1331
1355
1450
1694
2139
2598
2896
2894
2698
2403
2128
1895
1723
1621
1491
1379
1191
1061
992
1002
1090
1146
1215
1230
1203
1153
1101
1058
1053
1023
1037
1054
1103
1162
1205
1271
1307
1346
1347
1392
1484
1818
2297
2723
2934
2864
2624
2303
2047
1824
1674
1563
1463
1306
1137
1044
1001
1042
1121
1213
1245
1246
1204
1149
1094
1073
1040
1052
1047
1072
1139
1177
1226
1270
1303
1319
1378
1625
2066
2515
2845
2871
2681
2402
2127
1875
1680
1553
1429
1285
1136
1040
1008
1088
1153
1264
1300
1291
1246
1189
1130
1085
1069
1065
1069
1082
1161
1190
1219
1242
1270
1332
1506
1888
2372
2800
2925
2783
2525
2226
1949
1739
1580
1466
1344
1185
1054
1006
1023
1104
1209
1274
1296
1246
1189
1131
1101
1072
1022
1037
1055
1073
1152
1200
1246
1282
1310
1341
1380
1535
1929
2443
2877
3052
2928
2641
2327
2064
1827
1648
1535
1395
1263
1117
1014
1005
1040
1115
1200
1232
1240
1193
1126
1087
1058
1034
1023
1040
1069
1126
1168
1223
1271
1322
1350
1359
1365
1456
1712
2162
2663
3022
3107
2881
2559
2255
1983
1761
1614
1494
1360
1202
1089
1022
1047
1095
1168
1227
1264
1236
1182
1127
1161
1050
1018
1018
1040
1075
1136
1189
1227
1266
1296
1312
1359
1535
1935
2387
2753
2881
2775
2506
2220
1934
1725
1565
1429
1293
1174
1066
1070
1109
1217
1321
1373
1358
1315
1248
1178
1142
1126
1106
1113
1123
1164
1161
1216
1219
1163
1093
1018
975
959
956
963
974
1040
1090
1136
1179
1217
1335
1662
2104
2491
2677
2622
2405
2146
1895
1665
1505
1382
1266
1113
993
932
959
1065
1202
1275
1306
1287
1232
1123
1057
990
940
917
961
1006
1122
1209
1255
1293
1326
1392
1615
1997
2419
2674
2687
2493
2203
1904
1641
1453
1338
1223
1130
1013
997
1059
1219
1349
1411
1390
1307
1200
1125
1067
1008
1004
981
1008
1014
1050
1119
1193
1388
1792
2288
2679
2813
2673
2405
2108
1837
1601
1427
1307
1177
1052
960
965
1007
1117
1264
1329
1344
1328
1286
1227
1167
1142
1127
1123
1127
1163
1179
1200
1222
1296
1535
1966
2490
2899
3041
2895
2608
2271
1973
1738
1535
1417
1271
1120
1022
979
989
1073
1204
1284
1298
1296
1253
1186
1137
1110
1092
1097
1104
1118
1148
1217
1424
1791
2265
2613
2769
2672
2439
2151
1869
1635
1447
1269
1104
982
926
960
1042
1170
1282
1303
1274
1233
1168
1089
1053
1017
1009
1023
1056
1089
1127
1178
1342
1719
2165
2559
2778
2763
2559
2305
2014
1803
1627
1505
1351
1200
1094
977
949
990
1067
1131
1191
1168
1127
1089
1037
1011
1010
1008
1034
1063
1101
1130
1181
1327
1674
2099
2477
2665
2640
2448
2210
1968
1743
1584
1439
1297
1153
1009
944
927
975
1057
1123
1165
1148
1098
1074
1045
1014
1011
1019
1041
1101
1116
1159
1200
1369
1705
2115
2449
2634
2559
2403
2161
1911
1731
1568
1421
1297
1157
1062
1039
1059
1134
1229
1266
1286
1245
1196
1125
1115
1088
1095
1095
1104
1119
1170
1291
1535
1951
2305
2558
2558
2433
2191
1936
1745
1575
1411
1286
1136
1011
974
1008
1093
1187
1262
1251
1232
1193
1120
1090
1072
1098
1093
1104
1140
1162
1207
1320
1626
2046
2459
2696
2723
2535
2283
2007
1789
1610
1470
1330
1168
1016
938
913
959
1041
1119
1157
1169
1135
1083
1023
1008
1000
1011
1039
1104
1113
1155
1168
1242
1462
1869
2359
2706
2827
2747
2485
2199
1923
1729
1571
1410
1263
1109
978
895
898
973
1043
1129
1152
1136
1105
1042
997
971
971
982
1010
1102
1129
1171
1205
1245
1287
1419
1765
2240
2684
2929
2896
2667
2362
2064
1834
1629
1483
1332
1168
1014
921
907
944
1023
1120
1177
1159
1132
1055
1033
985
978
985
985
1042
1100
1146
1182
1215
1253
1283
1321
1491
1856
2352
2758
2973
2874
2621
2306
1999
1765
1579
1439
1296
1133
1004
959
960
1033
1116
1202
1229
1195
1159
1072
1053
1019
1006
1009
1011
1076
1131
1168
1198
1227
1283
1431
1766
2244
2643
2825
2769
2512
2202
1920
1693
1507
1376
1214
1067
985
967
1023
1127
1244
1290
1298
1259
1182
1123
1079
1065
1061
1071
1088
1146
1187
1217
1245
1267
1296
1462
1791
2279
2734
2988
2954
2654
2318
1997
1762
1583
1430
1297
1152
1040
968
961
1060
1137
1232
1239
1233
1168
1084
1056
1008
995
993
1010
1072
1139
1186
1232
1258
1296
1336
1458
1809
2317
2791
2999
2920
2668
2322
2030
1781
1578
1425
1301
1150
1033
946
934
1000
1104
1200
1222
1222
1170
1099
1062
1017
1008
1013
1047
1110
1155
1200
1243
1266
1296
1341
1489
1877
2391
2842
3026
2938
2643
2320
2009
1744
1535
1381
1249
1095
973
957
1011
1117
1243
1307
1316
1289
1187
1130
1081
1043
1045
1041
1086
1105
1162
1196
1229
1404
1782
2270
2682
2819
2720
2466
2156
1887
1660
1474
1331
1147
1011
956
1005
1093
1254
1325
1350
1339
1264
1186
1117
1075
1073
1062
1083
1089
1136
1169
1216
1274
1495
1924
2460
2834
2970
2811
2544
2239
1943
1738
1572
1419
1301
1146
1008
983
1003
1102
1195
1268
1261
1220
1166
1098
1072
1023
1013
1010
1040
1100
1131
1179
1200
1215
1284
1535
1971
2485
2841
2962
2778
2479
2190
1903
1690
1531
1407
1251
1100
979
909
945
987
1072
1167
1170
1146
1066
1002
945
954
942
959
1039
1087
1177
1236
1270
1303
1364
1535
1904
2400
2862
3097
3010
2725
2405
2106
1849
1682
1520
1333
1156
1014
923
914
998
1115
1200
1223
1213
1154
1072
1039
1010
998
1017
1056
1097
1136
1151
1195
1291
1581
2047
2505
2765
2786
2559
2272
1989
1730
1534
1392
1234
1098
1006
976
1023
1133
1280
1299
1312
1275
1186
1098
1055
1046
1040
1033
1063
1104
1123
1173
1185
1242
1471
1895
2397
2797
2894
2737
2461
2160
1887
1682
1535
1393
1245
1088
971
913
950
1023
1131
1200
1225
1185
1149
1063
1034
993
1008
1007
1035
1103
1164
1198
1231
1277
1328
1487
1851
2405
2907
3250
3184
2865
2548
2213
1936
1729
1569
1414
1223
1042
879
818
837
915
989
1075
1070
1043
945
891
870
855
859
880
939
1003
1061
1135
1198
1235
1277
1315
1360
1638
2110
2656
3012
3135
2903
2551
2228
1952
1725
1563
1422
1295
1111
970
896
891
946
1050
1138
1168
1163
1122
1072
1008
991
981
1001
994
1021
1087
1125
1164
1216
1242
1283
1353
1501
1840
2352
2853
3172
3106
2821
2449
2099
1816
1600
1434
1298
1152
1014
922
912
959
1059
1155
1198
1186
1159
1077
1039
998
983
1003
1003
1044
1106
1133
1182
1230
1262
1282
1299
1386
1618
2070
2559
2926
2991
2800
2483
2169
1887
1669
1508
1374
1233
1088
991
943
976
1059
1170
1217
1222
1189
1129
1062
1023
1021
1042
1043
1072
1149
1168
1215
1249
1278
1299
1322
1367
1566
1961
2432
2826
3019
2907
2624
2307
2022
1796
1587
1436
1264
1136
1066
1054
1127
1205
1301
1328
1311
1267
1169
1111
1076
1067
1050
1044
1072
1125
1167
1199
1227
1296
1504
1892
2367
2727
2899
2790
2544
2251
1948
1735
1535
1367
1225
1085
980
989
1037
1125
1238
1287
1280
1254
1169
1107
1077
1067
1039
1042
1061
1104
1175
1184
1200
1231
1341
1655
2135
2592
2905
2946
2740
2448
2134
1847
1611
1456
1308
1155
995
942
931
1005
1123
1232
1275
1275
1253
1200
1132
1114
1099
1110
1130
1136
1186
1194
1216
1325
1621
2079
2530
2838
2885
2703
2429
2155
1883
1687
1503
1363
1193
1023
959
950
1034
1113
1197
1226
1211
1179
1104
1068
1041
1023
1009
1040
1059
1111
1137
1189
1388
1807
2278
2695
2881
2789
2553
2263
1993
1757
1575
1436
1266
1105
1001
951
974
1050
1142
1203
1209
1183
1137
1071
1035
1008
1013
1019
1035
1107
1122
1144
1200
1404
1751
2256
2650
2818
2734
2523
2244
1968
1744
1573
1414
1257
1109
981
960
983
1059
1168
1217
1228
1205
1173
1109
1063
1041
1040
1046
1067
1107
1142
1163
1212
1298
1566
1995
2438
2739
2826
2692
2445
2159
1904
1699
1527
1391
1218
1081
993
1008
1050
1132
1227
1252
1258
1206
1136
1100
1071
1051
1055
1085
1098
1139
1166
1198
1265
1504
1914
2352
2666
2783
2643
2402
2128
1892
1698
1535
1389
1215
1093
1021
1052
1115
1179
1291
1278
1257
1206
1131
1093
1094
1062
1059
1081
1103
1136
1173
1232
1441
1841
2286
2640
2770
2668
2446
2157
1888
1709
1535
1405
1223
1075
975
964
1038
1105
1200
1227
1205
1195
1097
1042
1011
1034
1009
1038
1093
1136
1171
1179
1213
1339
1645
2080
2528
2803
2821
2638
2357
2095
1861
1665
1518
1350
1190
1040
939
895
943
998
1077
1114
1114
1117
1008
982
955
962
981
1071
1132
1200
1247
1297
1331
1420
1632
2018
2474
2832
2914
2740
2432
2095
1771
1499
1305
1131
1015
914
941
1009
1139
1235
1283
1267
1218
1147
1099
1054
1040
1036
1043
1060
1111
1136
1172
1206
1317
1567
1908
2225
2397
2413
2320
2145
1963
1791
1658
1531
1417
1303
1205
1200
1210
1270
1356
1378
1359
1312
1245
1197
1189
1169
1159
1178
1159
1182
1232
1362
1585
1887
2128
2249
2245
2150
2054
1903
1791
1685
1590
1472
1364
1280
1245
1249
1275
1312
1339
1342
1296
1290
1250
1232
1202
1211
1203
1226
1199
1257
1360
1533
1791
2011
2160
2183
2118
2021
1899
1802
1713
1645
1562
1469
1360
1315
1294
1286
1308
1329
1347
1316
1296
1264
1244
1237
1229
1242
1264
1253
1281
1296
1365
1457
1670
1904
2093
2203
2193
2131
2064
1945
1863
1794
1711
1623
1511
1424
1363
1342
1337
1360
1360
1348
1330
1306
1283
1274
1261
1247
1246
1251
1255
1306
1327
1331
1382
1495
1678
1882
2070
2150
2178
2128
2074
1978
1917
1846
1782
1695
1619
1535
1456
1418
1424
1415
1417
1409
1406
1371
1358
1328
1295
1302
1278
1285
1296
1295
1315
1324
1420
1424
1535
1706
1883
2039
2123
2147
2115
2064
2006
1923
1872
1831
1764
1673
1607
1530
1503
1494
1472
1477
1456
1456
1427
1405
1382
1366
1361
1342
1328
1329
1335
1347
1360
1370
1373
1460
1570
1729
1947
2096
2194
2209
2190
2114
2034
1985
1902
1840
1758
1680
1591
1518
1499
1473
1482
1478
1469
1438
1413
1375
1360
1328
1322
1297
1314
1300
1313
1311
1351
1392
1401
1425
1517
1709
1944
2192
2353
2420
2402
2319
2211
2106
2000
1905
1791
1671
1562
1475
1447
1407
1407
1394
1372
1341
1297
1267
1234
1179
1175
1163
1138
1103
1150
1155
1184
1152
1232
1305
1495
1821
2143
2434
2618
2654
2625
2510
2395
2256
2097
1919
1724
1535
1399
1318
1282
1294
1292
1263
1218
1167
1093
1050
1010
976
976
987
976
991
1007
1091
1242
1535
1926
2267
2463
2489
2365
2193
1973
1809
1667
1530
1390
1250
1119
1072
1065
1088
1139
1168
1211
1200
1136
1070
1053
1011
1023
1023
1043
1104
1161
1168
1200
1247
1345
1616
1999
2402
2673
2745
2654
2435
2205
1986
1793
1617
1475
1322
1200
1122
1102
1141
1201
1276
1317
1300
1298
1253
1218
1195
1200
1264
1334
1407
1461
1488
1507
1522
1600
1790
2121
2433
2635
2619
2454
2193
1952
1712
1533
1354
1200
1088
1069
1072
1138
1254
1347
1362
1351
1299
1251
1187
1157
1165
1161
1200
1230
1264
1298
1301
1331
1360
1520
1817
2224
2613
2850
2832
2691
2443
2199
1977
1787
1631
1479
1315
1206
1121
1109
1146
1229
1298
1341
1330
1299
1252
1187
1162
1153
1131
1119
1126
1142
1152
1201
1237
1381
1663
2016
2352
2548
2539
2429
2242
2032
1871
1696
1565
1427
1307
1198
1168
1167
1200
1258
1315
1337
1303
1263
1200
1179
1170
1161
1168
1180
1197
1231
1239
1275
1339
1534
1845
2179
2435
2544
2480
2352
2170
1994
1835
1669
1506
1383
1270
1216
1220
1274
1313
1337
1363
1353
1315
1247
1214
1193
1181
1171
1177
1191
1201
1254
1296
1408
1650
1981
2285
2466
2497
2413
2266
2059
1883
1691
1556
1408
1301
1241
1241
1291
1350
1363
1353
1330
1296
1274
1245
1230
1245
1238
1241
1239
1254
1264
1421
1679
2014
2291
2422
2401
2299
2130
1958
1803
1675
1535
1431
1312
1222
1167
1141
1167
1188
1212
1225
1201
1167
1131
1104
1083
1103
1085
1085
1092
1118
1155
1281
1534
1843
2134
2289
2335
2240
2128
1975
1863
1751
1664
1579
1477
1439
1398
1427
1444
1467
1462
1430
1361
1321
1264
1215
1170
1136
1133
1109
1106
1170
1349
1642
1968
2176
2260
2213
2101
1922
1776
1648
1535
1422
1297
1184
1115
1105
1143
1183
1207
1245
1194
1204
1147
1109
1100
1082
1078
1077
1094
1132
1170
1197
1315
1521
1856
2192
2400
2459
2363
2240
2080
1915
1783
1680
1535
1424
1297
1194
1167
1186
1200
1233
1235
1232
1225
1205
1181
1177
1200
1261
1317
1355
1358
1351
1182
1163
1098
1065
1072
1089
1121
1169
1170
1250
1439
1827
2321
2705
2881
2796
2602
2332
2085
1857
1693
1535
1388
1234
1069
965
944
985
1073
1191
1217
1234
1220
1189
1137
1104
1114
1122
1163
1218
1247
1281
1302
1411
1703
2161
2625
2949
3026
2844
2583
2307
2067
1857
1712
1535
1392
1210
1111
1050
1088
1131
1217
1293
1301
1271
1213
1157
1104
1073
1072
1072
1095
1155
1219
1232
1267
1346
1582
1988
2467
2832
2979
2867
2637
2375
2125
1905
1699
1553
1346
1169
1023
955
972
1036
1104
1206
1213
1201
1174
1104
1039
1039
1023
1008
1065
1153
1193
1247
1273
1314
1338
1441
1713
2138
2626
2949
3071
2932
2693
2416
2176
1955
1779
1584
1392
1198
1088
1017
1051
1107
1154
1218
1227
1211
1175
1115
1089
1082
1085
1094
1114
1168
1218
1253
1297
1330
1339
1370
1505
1830
2295
2747
3026
3004
2806
2528
2239
2002
1760
1584
1409
1265
1103
1023
998
1052
1143
1235
1264
1264
1227
1178
1112
1072
1079
1072
1085
1117
1169
1232
1253
1297
1340
1344
1370
1457
1680
2095
2559
2929
3071
2943
2670
2384
2109
1867
1679
1520
1330
1183
1051
1033
1060
1155
1243
1307
1330
1285
1218
1137
1093
1077
1066
1056
1106
1155
1204
1235
1271
1296
1344
1502
1871
2383
2890
3216
3219
2974
2658
2345
2066
1824
1617
1404
1223
1097
1055
1098
1157
1230
1291
1299
1239
1138
1088
1038
982
966
987
1008
1099
1154
1200
1234
1253
1264
1296
1461
1787
2193
2551
2744
2751
2624
2418
2174
1978
1788
1664
1499
1358
1205
1104
1041
1042
1081
1120
1136
1147
1139
1102
1090
1040
1035
1033
1023
1021
1068
1121
1139
1164
1175
1201
1306
1472
1757
2031
2249
2335
2329
2231
2127
1958
1859
1722
1605
1477
1390
1310
1261
1254
1279
1290
1313
1302
1294
1255
1232
1215
1198
1216
1202
1200
1230
1264
1275
1291
1318
1355
1421
1590
1781
1982
2102
2156
2118
2059
1973
1887
1817
1744
1661
1583
1511
1458
1446
1445
1454
1459
1469
1451
1441
1423
1393
1391
1373
1361
1349
1354
1379
1375
1382
1394
1445
1554
1653
1841
1943
2027
2025
2009
1943
1873
1801
1749
1704
1633
1589
1535
1531
1535
1569
1564
1554
1535
1522
1497
1466
1470
1441
1429
1426
1450
1453
1457
1486
1527
1616
1713
1862
1992
2098
2114
2106
2044
1978
1906
1856
1808
1743
1654
1607
1587
1573
1571
1562
1535
1522
1499
1483
1464
1423
1409
1397
1388
1391
1401
1405
1393
1406
1459
1535
1655
1814
1949
2045
2082
2075
2059
2009
1981
1915
1876
1805
1738
1658
1616
1554
1535
1519
1513
1491
1484
1437
1413
1383
1365
1334
1325
1313
1309
1296
1293
1312
1359
1472
1596
1742
1872
1938
1942
1923
1890
1851
1781
1745
1695
1643
1574
1520
1487
1481
1451
1461
1434
1421
1407
1387
1393
1383
1360
1366
1344
1349
1350
1361
1366
1414
1487
1535
1639
1729
1810
1842
1857
1835
1821
1807
1744
1698
1683
1637
1615
1594
1584
1579
1593
1595
1606
1591
1557
1534
1535
1523
1523
1511
1511
1495
1519
1520
1525
1606
1643
1735
1797
1855
1858
1861
1866
1854
1821
1799
1744
1709
1689
1669
1664
1670
1652
1665
1639
1659
1642
1617
1619
1610
1582
1583
1566
1573
1558
1557
1575
1629
1696
1751
1809
1839
1860
1860
1871
1862
1843
1827
1774
1734
1725
1700
1678
1672
1675
1666
1664
1649
1653
1644
1619
1616
1603
1600
1584
1583
1588
1596
1594
1654
1725
1775
1823
1870
1882
1875
1890
1885
1862
1835
1801
1757
1728
1712
1686
1687
1673
1664
1664
1647
1645
1635
1618
1612
1600
1611
1581
1569
1568
1584
1630
1698
1771
1835
1899
1911
1919
1921
1919
1899
1901
1845
1802
1771
1731
1712
1699
1682
1686
1671
1666
1649
1643
1611
1598
1583
1568
1574
1535
1554
1553
1603
1702
1802
1947
2044
2130
2185
2221
2201
2186
2170
2114
2025
1941
1855
1776
1715
1690
1634
1611
1562
1509
1467
1405
1368
1333
1311
1291
1262
1248
1247
1289
1419
1599
1798
1981
2105
2153
2137
2118
2043
1979
1894
1805
1712
1598
1469
1385
1329
1323
1290
1290
1262
1217
1195
1161
1136
1118
1106
1129
1134
1133
1147
1197
1260
1366
1578
1797
2022
2127
2128
2080
1991
1879
1808
1731
1665
1573
1456
1370
1307
1279
1264
1264
1267
1274
1267
1249
1247
1232
1217
1200
1182
1189
1195
1199
1219
1311
1441
1650
1901
2032
2117
2112
2033
1968
1851
1772
1717
1642
1515
1446
1383
1344
1360
1393
1399
1402
1406
1379
1342
1326
1310
1285
1262
1264
1259
1285
1300
1338
1407
1535
1744
1953
2064
2122
2114
2032
1938
1845
1778
1691
1615
1531
1441
1381
1347
1328
1345
1361
1370
1359
1333
1321
1310
1293
1289
1296
1294
1301
1318
1357
1378
1423
1494
1632
1808
1959
2075
2096
2031
2010
1936
1865
1821
1745
1680
1611
1567
1535
1535
1578
1571
1561
1535
1533
1520
1478
1463
1454
1446
1441
1429
1424
1424
1441
1441
1535
1674
1801
1918
1987
1997
1974
1911
1856
1773
1707
1631
1568
1531
1508
1502
1520
1519
1474
1462
1437
1413
1369
1377
1377
1371
1394
1393
1387
1405
1466
1566
1669
1819
1963
2065
2081
2079
2022
1974
1902
1819
1735
1641
1582
1535
1519
1503
1493
1498
1495
1490
1472
1472
1434
1413
1399
1383
1382
1380
1388
1445
1558
1701
1871
2031
2112
2130
2096
2032
1942
1856
1783
1722
1646
1535
1492
1459
1440
1456
1460
1455
1451
1437
1415
1381
1360
1361
1334
1334
1327
1333
1406
1534
1719
1917
2090
2160
2174
2145
2058
1969
1899
1798
1723
1620
1529
1466
1456
1447
1455
1452
1453
1429
1397
1363
1354
1309
1285
1281
1263
1264
1355
1506
1727
1940
2130
2180
2163
2113
1971
1872
1799
1664
1567
1439
1361
1296
1306
1327
1351
1354
1351
1339
1296
1286
1251
1220
1206
1200
1206
1264
1425
1663
1936
2143
2211
2201
2143
2021
1879
1786
1670
1565
1415
1331
1264
1243
1266
1294
1314
1323
1296
1269
1230
1202
1183
1161
1163
1182
1259
1419
1719
2021
2226
2311
2272
2178
2023
1889
1781
1660
1521
1387
1283
1194
1185
1203
1241
1264
1258
1250
1217
1182
1167
1136
1117
1118
1134
1289
1518
1840
2147
2321
2370
2303
2141
1954
1799
1663
1531
1392
1249
1167
1115
1111
1138
1202
1219
1217
1200
1168
1153
1138
1126
1110
1114
1158
1333
1620
1959
2261
2391
2381
2293
2128
1968
1835
1697
1577
1421
1264
1158
1104
1074
1105
1152
1200
1198
1181
1163
1154
1133
1136
1116
1136
1190
1339
1611
1981
2259
2427
2416
2306
2144
1974
1841
1697
1569
1419
1278
1147
1072
1039
1058
1103
1145
1212
1165
1145
1127
1102
1088
1086
1083
1152
1326
1634
1968
2234
2363
2335
2223
2074
1894
1755
1632
1508
1351
1200
1095
1062
1046
1102
1152
1219
1235
1246
1219
1194
1154
1136
1104
1107
1140
1302
1535
1898
2229
2416
2419
2350
2174
2005
1860
1721
1612
1451
1296
1164
1111
1088
1116
1167
1201
1263
1255
1238
1206
1171
1169
1146
1154
1163
1216
1377
1660
2019
2311
2461
2469
2343
2187
2004
1872
1732
1598
1417
1268
1147
1089
1083
1121
1171
1223
1257
1252
1221
1200
1136
1117
1120
1152
1148
1207
1285
1494
1824
2153
2387
2477
2417
2273
2105
1920
1788
1643
1495
1346
1187
1105
1082
1110
1139
1179
1243
1239
1231
1216
1193
1167
1129
1166
1166
1210
1247
1270
1345
1535
1853
2199
2408
2489
2434
2304
2150
1952
1810
1681
1533
1385
1249
1162
1104
1115
1168
1186
1200
1209
1202
1184
1168
1122
1117
1123
1136
1151
1200
1225
1275
1414
1680
2007
2262
2403
2399
2273
2133
1965
1834
1708
1575
1430
1281
1193
1152
1157
1199
1234
1266
1288
1292
1253
1211
1181
1186
1161
1167
1180
1206
1253
1387
1623
1904
2175
2313
2332
2256
2100
1947
1808
1681
1527
1375
1266
1200
1166
1192
1219
1275
1313
1310
1286
1262
1205
1168
1167
1178
1184
1173
1215
1253
1322
1479
1746
2059
2286
2368
2345
2267
2142
1978
1841
1717
1584
1466
1317
1246
1195
1187
1210
1246
1264
1245
1234
1206
1202
1196
1177
1187
1183
1210
1214
1270
1299
1427
1654
1898
2156
2288
2325
2273
2183
2039
1921
1814
1707
1583
1445
1344
1280
1267
1262
1279
1302
1296
1301
1270
1260
1244
1217
1215
1203
1214
1238
1233
1279
1302
1361
1523
1739
1991
2183
2288
2274
2209
2119
2000
1902
1783
1675
1554
1459
1374
1348
1319
1331
1338
1344
1341
1331
1322
1294
1277
1279
1268
1278
1286
1286
1295
1330
1415
1565
1779
1975
2131
2203
2199
2128
2027
1938
1835
1735
1621
1520
1431
1390
1356
1360
1382
1383
1392
1376
1357
1328
1309
1292
1287
1283
1280
1289
1296
1314
1431
1568
1770
1981
2144
2212
2177
2128
2025
1912
1817
1719
1635
1514
1429
1392
1381
1388
1424
1418
1425
1403
1379
1360
1344
1319
1306
1306
1299
1312
1327
1354
1450
1615
1837
2037
2183
2227
2215
2159
2037
1936
1856
1743
1620
1514
1439
1381
1363
1361
1381
1392
1392
1374
1360
1338
1307
1315
1295
1306
1314
1309
1326
1351
1415
1535
1723
1945
2118
2198
2211
2167
2101
2000
1937
1845
1786
1712
1642
1601
1577
1567
1521
1491
1463
1392
1365
1296
1264
1243
1239
1227
1239
1230
1258
1386
1532
1765
1980
2125
2201
2174
2091
2003
1867
1776
1675
1587
1482
1390
1315
1287
1251
1254
1264
1295
1290
1285
1254
1241
1251
1242
1232
1247
1246
1293
1312
1328
1405
1584
1814
2067
2242
2334
2305
2233
2115
1993
1901
1791
1671
1557
1440
1344
1295
1280
1291
1327
1323
1317
1307
1273
1251
1257
1226
1229
1236
1250
1234
1264
1296
1410
1592
1840
2141
2355
2463
2455
2391
2256
2123
1966
1844
1680
1525
1401
1296
1247
1242
1257
1306
1327
1331
1317
1296
1296
1275
1289
1311
1325
1360
1362
1366
1391
1439
1535
1776
2003
2189
2266
2259
2224
2128
1995
1872
1779
1686
1563
1478
1422
1350
1363
1373
1360
1359
1338
1321
1306
1307
1315
1306
1299
1296
1295
1312
1314
1375
1456
1601
1738
1872
1930
1950
1930
1903
1808
1741
1674
1610
1527
1488
1486
1473
1499
1494
1495
1490
1483
1469
1486
1487
1460
1456
1463
1479
1485
1488
1554
1648
1754
1852
1968
2035
2013
2011
1953
1875
1823
1762
1710
1649
1599
1583
1565
1575
1575
1535
1554
1525
1535
1535
1515
1515
1514
1520
1535
1516
1524
1605
1707
1805
1887
1967
1994
1998
1961
1931
1871
1838
1776
1726
1689
1671
1643
1616
1618
1617
1626
1622
1602
1584
1584
1557
1559
1535
1533
1535
1568
1661
1747
1859
1981
2039
2061
2043
2015
1970
1886
1827
1782
1695
1648
1617
1590
1584
1581
1579
1568
1535
1529
1520
1489
1478
1461
1458
1441
1461
1570
1690
1840
2000
2099
2147
2149
2123
2061
1983
1919
1838
1756
1687
1607
1569
1520
1529
1511
1499
1488
1456
1447
1397
1363
1360
1328
1315
1318
1431
1596
1775
1953
2107
2147
2129
2091
2023
1941
1853
1765
1663
1535
1462
1392
1373
1357
1335
1360
1327
1313
1285
1266
1246
1216
1195
1181
1206
1314
1483
1700
1897
2032
2078
2069
1983
1913
1809
1722
1608
1488
1375
1290
1236
1231
1257
1264
1271
1269
1259
1249
1232
1216
1214
1200
1222
1296
1434
1636
1881
2080
2178
2175
2114
2022
1894
1793
1705
1584
1459
1355
1292
1253
1267
1282
1296
1284
1286
1273
1256
1239
1249
1232
1231
1234
1275
1399
1589
1826
2053
2165
2195
2154
2031
1926
1811
1728
1630
1495
1388
1286
1259
1211
1210
1236
1266
1273
1286
1279
1270
1266
1263
1264
1255
1270
1283
1355
1435
1616
1847
2070
2231
2268
2237
2158
2042
1954
1842
1749
1658
1526
1423
1357
1318
1319
1315
1329
1360
1360
1360
1344
1314
1310
1311
1331
1326
1327
1379
1411
1454
1553
1303
1328
1369
1373
1427
1616
1900
2205
2464
2585
2522
2406
2224
2027
1872
1751
1632
1502
1395
1301
1246
1264
1287
1326
1369
1371
1343
1327
1293
1269
1249
1246
1255
1274
1286
1343
1347
1374
1398
1443
1614
1895
2214
2474
2587
2542
2416
2245
2065
1909
1791
1648
1535
1411
1312
1281
1277
1327
1356
1366
1367
1349
1325
1312
1279
1255
1237
1241
1257
1274
1339
1343
1359
1397
1497
1722
2027
2338
2519
2544
2459
2317
2135
1968
1815
1694
1568
1456
1328
1264
1232
1264
1321
1354
1344
1339
1292
1285
1254
1216
1221
1203
1213
1238
1253
1296
1317
1324
1408
1565
1850
2165
2403
2487
2472
2338
2181
2006
1877
1769
1643
1517
1394
1301
1270
1267
1270
1291
1328
1313
1314
1299
1251
1245
1245
1222
1236
1241
1279
1319
1346
1357
1390
1438
1616
1863
2157
2391
2491
2502
2411
2269
2111
1980
1890
1798
1691
1588
1458
1395
1391
1392
1389
1378
1367
1335
1303
1260
1231
1206
1170
1159
1183
1201
1259
1285
1295
1327
1317
1373
1505
1759
2032
2257
2346
2303
2183
2038
1899
1792
1705
1620
1499
1405
1296
1249
1223
1247
1271
1290
1317
1280
1265
1250
1223
1228
1203
1217
1217
1251
1283
1328
1330
1359
1391
1472
1631
1882
2171
2367
2455
2428
2308
2161
1998
1859
1717
1599
1466
1360
1295
1261
1269
1315
1325
1348
1344
1324
1296
1248
1227
1211
1197
1200
1214
1223
1281
1306
1312
1351
1456
1667
1984
2234
2394
2421
2318
2177
2000
1868
1740
1631
1491
1407
1295
1259
1281
1325
1361
1415
1425
1393
1359
1313
1277
1246
1245
1233
1254
1247
1267
1313
1406
1601
1882
2179
2363
2413
2334
2187
2005
1842
1707
1571
1439
1323
1246
1221
1221
1280
1344
1394
1396
1389
1335
1281
1258
1235
1242
1239
1236
1264
1295
1410
1623
1913
2226
2426
2463
2394
2227
2032
1887
1759
1642
1505
1396
1291
1232
1237
1283
1356
1424
1424
1414
1385
1344
1296
1281
1268
1279
1271
1300
1370
1535
1855
2182
2434
2515
2474
2326
2155
1949
1809
1661
1535
1414
1280
1197
1167
1193
1220
1279
1315
1312
1303
1281
1205
1178
1198
1187
1189
1214
1250
1343
1535
1904
2236
2451
2514
2456
2315
2141
1990
1833
1721
1612
1461
1328
1220
1138
1121
1146
1199
1215
1254
1269
1264
1249
1210
1190
1170
1163
1168
1187
1296
1439
1742
2055
2323
2421
2401
2285
2119
1967
1823
1706
1611
1478
1354
1231
1157
1146
1136
1186
1231
1274
1282
1273
1232
1219
1209
1180
1179
1204
1205
1257
1287
1408
1627
1937
2230
2404
2439
2361
2224
2082
1921
1802
1700
1584
1473
1369
1278
1232
1231
1243
1266
1293
1303
1286
1259
1235
1234
1217
1214
1220
1232
1257
1351
1508
1749
2000
2203
2275
2257
2174
2038
1918
1823
1727
1620
1523
1424
1347
1300
1298
1296
1326
1335
1350
1323
1312
1283
1269
1266
1254
1270
1261
1271
1333
1440
1615
1823
2030
2147
2192
2160
2089
1970
1879
1793
1712
1613
1511
1437
1386
1361
1360
1393
1393
1381
1389
1349
1331
1344
1311
1296
1296
1302
1312
1319
1359
1453
1586
1755
1959
2094
2139
2130
2077
1975
1877
1809
1737
1648
1535
1475
1424
1392
1393
1415
1417
1425
1423
1403
1382
1365
1341
1333
1344
1329
1328
1324
1334
1441
1522
1697
1882
2041
2112
2118
2071
2000
1931
1851
1767
1713
1616
1558
1487
1465
1487
1492
1491
1488
1476
1461
1424
1412
1379
1360
1360
1356
1361
1359
1397
1503
1659
1850
2032
2129
2143
2119
2032
1967
1874
1805
1712
1611
1523
1456
1427
1423
1434
1431
1441
1441
1425
1379
1365
1339
1328
1331
1323
1307
1310
1331
1378
1488
1669
1903
2095
2224
2256
2229
2144
2036
1941
1853
1762
1685
1574
1472
1418
1386
1378
1378
1393
1385
1354
1321
1297
1293
1262
1263
1250
1256
1264
1291
1319
1328
1350
1447
1632
1889
2129
2289
2351
2338
2225
2103
1971
1851
1750
1648
1531
1403
1330
1287
1279
1274
1291
1314
1302
1281
1255
1232
1206
1186
1193
1182
1198
1237
1280
1312
1328
1345
1391
1520
1747
2062
2352
2527
2593
2516
2365
2213
2036
1906
1770
1627
1491
1376
1296
1261
1281
1312
1338
1331
1330
1310
1287
1262
1251
1242
1234
1220
1253
1277
1307
1335
1342
1362
1399
1527
1755
2112
2416
2600
2615
2507
2332
2128
1947
1805
1669
1530
1397
1299
1250
1264
1293
1343
1408
1413
1398
1359
1300
1280
1260
1243
1259
1271
1282
1306
1358
1407
1524
1786
2150
2467
2635
2639
2495
2299
2090
1905
1741
1600
1471
1319
1252
1216
1217
1286
1351
1413
1389
1373
1325
1262
1259
1221
1217
1218
1219
1250
1300
1339
1360
1376
1392
1427
1499
1687
2029
2439
2759
2886
2820
2624
2385
2147
1952
1777
1629
1487
1339
1231
1157
1147
1175
1227
1283
1330
1306
1277
1205
1171
1150
1139
1149
1161
1188
1246
1291
1315
1359
1380
1397
1430
1562
1850
2258
2655
2916
2950
2800
2547
2281
2064
1854
1712
1569
1420
1275
1193
1139
1146
1215
1262
1315
1328
1317
1270
1215
1168
1162
1150
1145
1168
1187
1249
1280
1301
1346
1376
1407
1434
1489
1686
2055
2480
2848
3031
2941
2710
2448
2182
1950
1759
1618
1458
1321
1211
1136
1148
1193
1237
1319
1339
1310
1296
1200
1155
1130
1121
1118
1135
1150
1207
1253
1298
1325
1366
1376
1435
1584
1904
2341
2742
2938
2891
2695
2425
2146
1904
1726
1566
1433
1271
1166
1123
1152
1238
1332
1405
1415
1393
1328
1251
1226
1200
1197
1191
1207
1241
1264
1303
1341
1466
1751
2163
2547
2759
2730
2549
2293
2032
1809
1647
1474
1302
1163
1072
1065
1109
1226
1346
1403
1421
1413
1376
1293
1261
1232
1222
1255
1265
1311
1328
1341
1397
1585
1923
2355
2682
2778
2673
2431
2165
1917
1725
1596
1456
1311
1172
1088
1066
1119
1232
1314
1353
1348
1329
1289
1235
1200
1171
1181
1183
1212
1250
1263
1295
1353
1557
1928
2339
2615
2679
2540
2342
2118
1899
1743
1599
1472
1344
1221
1085
1023
1040
1084
1145
1238
1262
1248
1235
1168
1127
1098
1072
1086
1093
1126
1190
1228
1262
1280
1317
1390
1600
1967
2366
2640
2708
2608
2402
2158
1941
1772
1645
1534
1407
1287
1153
1072
1072
1083
1143
1200
1232
1246
1225
1190
1147
1111
1107
1109
1118
1163
1215
1242
1271
1289
1328
1343
1365
1455
1697
2018
2360
2595
2637
2513
2343
2149
1959
1831
1683
1581
1443
1319
1219
1163
1137
1161
1193
1243
1246
1247
1227
1200
1168
1158
1165
1147
1170
1169
1219
1251
1289
1298
1333
1370
1401
1391
1421
1479
1616
1891
2189
2423
2526
2487
2386
2214
2075
1927
1806
1706
1567
1430
1344
1251
1225
1241
1232
1270
1247
1238
1228
1214
1184
1167
1155
1168
1162
1174
1215
1258
1270
1291
1313
1330
1351
1380
1408
1439
1584
1797
2064
2290
2400
2419
2338
2249
2134
2001
1919
1829
1718
1599
1493
1424
1417
1392
1377
1365
1343
1324
1287
1248
1231
1223
1213
1234
1249
1296
1325
1345
1365
1398
1417
1422
1465
1465
1469
1509
1618
1795
2042
2215
2329
2355
2307
2219
2125
2017
1915
1827
1713
1615
1520
1451
1423
1452
1441
1439
1445
1426
1411
1382
1367
1360
1335
1319
1311
1312
1339
1344
1345
1375
1381
1406
1405
1459
1603
1822
2011
2173
2231
2198
2128
2030
1921
1817
1737
1666
1564
1461
1394
1376
1373
1392
1408
1405
1381
1351
1338
1307
1275
1258
1241
1253
1255
1263
1270
1328
1329
1371
1370
1374
1390
1453
1618
1839
2110
2304
2405
2397
2321
2206
2072
1963
1865
1780
1658
1535
1441
1406
1373
1378
1393
1390
1378
1352
1325
1285
1239
1218
1185
1194
1189
1183
1202
1232
1287
1291
1316
1338
1360
1362
1407
1424
1524
1748
2032
2293
2448
2474
2413
2293
2119
1968
1853
1742
1623
1505
1413
1330
1298
1262
1286
1309
1311
1303
1284
1245
1238
1203
1201
1208
1205
1201
1206
1275
1296
1314
1360
1362
1386
1395
1438
1447
1553
1727
2005
2290
2480
2546
2480
2361
2197
2032
1901
1798
1689
1564
1441
1369
1315
1323
1328
1375
1392
1376
1354
1326
1316
1295
1270
1269
1259
1262
1269
1279
1339
1362
1383
1413
1418
1441
1447
1488
1555
1725
1984
2297
2514
2610
2559
2441
2274
2096
1969
1837
1716
1616
1478
1392
1350
1334
1371
1398
1424
1406
1371
1350
1313
1279
1261
1235
1230
1250
1262
1296
1330
1355
1360
1389
1424
1504
1691
2000
2313
2517
2609
2512
2368
2184
2015
1861
1733
1617
1487
1395
1328
1307
1354
1386
1406
1404
1398
1337
1278
1267
1247
1219
1205
1224
1264
1286
1308
1333
1353
1403
1578
1854
2192
2485
2631
2605
2451
2240
2058
1878
1735
1619
1515
1359
1253
1219
1196
1243
1287
1315
1331
1315
1253
1203
1200
1154
1145
1145
1182
1227
1247
1303
1330
1328
1377
1442
1667
2039
2416
2682
2736
2635
2416
2189
1991
1809
1675
1595
1466
1318
1193
1131
1126
1152
1211
1232
1270
1279
1227
1166
1139
1122
1125
1126
1136
1189
1237
1274
1313
1334
1360
1386
1419
1521
1757
2166
2533
2768
2791
2614
2380
2146
1940
1779
1677
1553
1435
1309
1172
1117
1134
1155
1197
1255
1280
1235
1219
1161
1126
1131
1136
1133
1146
1216
1241
1279
1317
1351
1392
1422
1431
1456
1488
1622
1935
2317
2659
2838
2769
2586
2318
2078
1901
1731
1625
1510
1375
1243
1156
1147
1149
1211
1281
1323
1317
1296
1242
1188
1168
1158
1153
1167
1191
1258
1296
1335
1323
1387
1393
1434
1509
1759
2146
2469
2654
2640
2458
2222
2009
1810
1694
1573
1485
1338
1223
1155
1153
1206
1271
1359
1361
1344
1298
1234
1198
1168
1168
1177
1198
1234
1283
1307
1354
1373
1409
1419
1439
1535
1808
2192
2538
2710
2672
2485
2251
2035
1851
1694
1535
1487
1377
1232
1146
1119
1136
1206
1263
1314
1311
1298
1242
1185
1188
1175
1185
1169
1195
1219
1279
1301
1328
1368
1387
1410
1437
1501
1687
2079
2471
2759
2836
2706
2474
2202
1999
1811
1666
1555
1425
1305
1181
1115
1111
1155
1221
1296
1335
1319
1291
1245
1201
1160
1183
1182
1190
1242
1279
1315
1341
1390
1408
1435
1449
1507
1643
1959
2352
2687
2811
2706
2498
2237
2000
1821
1686
1581
1443
1328
1206
1159
1189
1249
1350
1399
1401
1392
1328
1264
1219
1190
1171
1191
1211
1264
1296
1319
1347
1355
1409
1573
1909
2299
2593
2676
2590
2352
2145
1919
1754
1615
1488
1372
1254
1183
1139
1184
1264
1364
1395
1389
1358
1299
1243
1231
1216
1200
1207
1232
1261
1321
1334
1363
1392
1392
1438
1618
1989
2448
2789
2929
2827
2559
2320
2094
1881
1741
1616
1505
1360
1241
1105
1063
1102
1168
1239
1298
1292
1264
1238
1183
1148
1127
1133
1126
1147
1187
1241
1277
1311
1361
1390
1431
1517
1799
2215
2636
2896
2928
2745
2479
2224
1999
1825
1710
1573
1433
1291
1182
1104
1097
1148
1211
1266
1296
1283
1246
1191
1167
1147
1147
1153
1177
1261
1281
1311
1355
1381
1405
1428
1428
1473
1627
1956
2379
2704
2839
2769
2555
2318
2093
1907
1747
1659
1528
1392
1278
1169
1137
1165
1215
1279
1345
1335
1318
1277
1214
1205
1178
1167
1171
1175
1185
1203
1263
1290
1309
1314
1331
1341
1354
1387
1557
1847
2203
2469
2559
2501
2372
2176
1985
1808
1698
1612
1510
1379
1295
1249
1225
1258
1316
1350
1361
1351
1318
1271
1228
1215
1200
1207
1229
1234
1283
1314
1309
1329
1360
1457
1670
2208
2350
2368
2287
2129
1971
1815
1703
1598
1489
1403
1328
1299
1318
1355
1406
1434
1427
1414
1344
1312
1268
1258
1245
1241
1266
1266
1296
1343
1344
1357
1380
1467
1690
1985
2275
2451
2491
2425
2293
2142
1998
1883
1353
1346
1302
1253
1232
1214
1200
1201
1217
1246
1298
1312
1328
1366
1390
1415
1429
1445
1502
1699
1995
2320
2553
2593
2481
2289
2061
1861
1712
1603
1513
1386
1286
1185
1154
1155
1201
1270
1303
1328
1326
1274
1226
1201
1179
1170
1190
1184
1201
1259
1289
1310
1333
1366
1392
1419
1436
1463
1478
1533
1759
2083
2416
2641
2672
2547
2325
2085
1873
1712
1613
1507
1379
1269
1195
1152
1169
1202
1262
1296
1328
1285
1231
1190
1168
1152
1139
1155
1169
1234
1291
1306
1339
1361
1390
1413
1438
1451
1520
1735
2079
2389
2559
2581
2451
2235
1994
1805
1653
1535
1411
1323
1207
1149
1143
1186
1251
1321
1347
1328
1311
1257
1200
1178
1174
1174
1196
1214
1271
1286
1313
1347
1376
1399
1424
1453
1485
1671
1969
2338
2617
2702
2592
2365
2102
1853
1683
1523
1423
1343
1254
1190
1157
1195
1291
1375
1436
1472
1451
1422
1376
1323
1296
1261
1243
1260
1254
1290
1296
1345
1352
1383
1419
1427
1440
1464
1482
1607
1891
2278
2660
2864
2851
2676
2409
2151
1895
1711
1562
1441
1337
1213
1136
1115
1149
1189
1262
1301
1282
1258
1182
1139
1120
1109
1095
1122
1133
1172
1207
1265
1279
1323
1374
1424
1437
1469
1502
1635
1925
2350
2757
2970
2937
2736
2480
2179
1939
1750
1600
1466
1338
1253
1167
1157
1200
1269
1350
1399
1392
1342
1279
1229
1189
1168
1155
1158
1157
1194
1267
1282
1334
1360
1374
1397
1530
1857
2266
2610
2765
2717
2515
2273
2003
1789
1609
1487
1364
1223
1129
1117
1137
1210
1299
1358
1367
1334
1279
1220
1165
1137
1128
1107
1105
1150
1155
1209
1254
1264
1311
1323
1379
1575
1943
2384
2736
2864
2747
2516
2250
2015
1817
1667
1558
1416
1294
1200
1125
1126
1190
1254
1359
1352
1341
1313
1239
1175
1159
1136
1117
1119
1131
1176
1245
1297
1318
1358
1365
1395
1458
1663
2060
2476
2800
2864
2740
2495
2219
1966
1762
1614
1503
1387
1239
1146
1070
1062
1115
1170
1269
1287
1283
1237
1175
1147
1111
1104
1102
1107
1154
1215
1257
1298
1364
1434
1479
1514
1535
1616
1873
2271
2625
2806
2770
2559
2302
2032
1799
1611
1484
1358
1271
1134
1046
1003
1056
1104
1147
1200
1201
1183
1119
1091
1079
1072
1088
1111
1148
1175
1211
1247
1293
1328
1375
1422
1453
1475
1483
1501
1606
1889
2319
2682
2852
2778
2599
2303
2031
1808
1650
1518
1413
1285
1173
1093
1087
1108
1201
1267
1319
1309
1294
1216
1173
1133
1121
1118
1124
1147
1195
1232
1281
1307
1343
1382
1411
1444
1456
1477
1594
1872
2299
2637
2815
2768
2554
2284
2018
1812
1627
1490
1381
1270
1172
1110
1110
1181
1294
1355
1368
1337
1279
1211
1171
1155
1136
1120
1147
1153
1211
1261
1264
1295
1313
1370
1567
1917
2305
2559
2631
2511
2291
2045
1831
1651
1525
1424
1293
1183
1106
1088
1127
1202
1311
1355
1347
1318
1232
1209
1169
1147
1136
1149
1167
1230
1265
1275
1290
1315
1392
1634
2023
2432
2688
2741
2608
2373
2126
1904
1712
1575
1476
1333
1206
1119
1040
1054
1133
1213
1264
1292
1279
1236
1165
1137
1105
1097
1099
1122
1166
1210
1251
1271
1311
1344
1389
1611
1985
2400
2690
2763
2653
2415
2151
1936
1759
1607
1510
1392
1259
1135
1049
1054
1097
1180
1252
1284
1277
1245
1200
1159
1115
1104
1085
1093
1118
1195
1227
1249
1266
1297
1296
1328
1472
1797
2206
2533
2669
2586
2380
2133
1903
1700
1579
1488
1373
1237
1135
1042
1009
1062
1147
1220
1255
1257
1232
1177
1146
1110
1095
1088
1093
1126
1198
1232
1265
1306
1307
1361
1475
1798
2205
2509
2623
2544
2339
2090
1863
1669
1535
1435
1327
1197
1081
1035
1070
1157
1243
1298
1325
1301
1254
1190
1147
1122
1101
1118
1139
1147
1177
1207
1215
1255
1429
1776
2191
2487
2603
2489
2292
2032
1851
1690
1570
1476
1353
1211
1120
1063
1097
1191
1284
1346
1361
1326
1285
1219
1191
1157
1152
1161
1198
1227
1269
1286
1243
1305
1360
1535
1919
2352
2645
2711
2603
2370
2123
1898
1711
1568
1444
1327
1193
1069
998
976
1033
1124
1221
1246
1232
1201
1151
1093
1082
1088
1070
1103
1137
1187
1221
1264
1296
1311
1354
1424
1671
2082
2495
2761
2787
2631
2383
2128
1887
1725
1594
1491
1361
1219
1106
1050
1066
1097
1185
1261
1279
1271
1243
1194
1138
1133
1123
1110
1120
1151
1200
1250
1287
1313
1344
1365
1380
1403
1521
1853
2288
2686
2883
2822
2594
2288
2017
1808
1651
1520
1392
1270
1121
1013
987
1015
1109
1191
1248
1253
1232
1194
1147
1104
1081
1083
1098
1101
1175
1199
1234
1270
1311
1346
1359
1381
1454
1638
2064
2492
2775
2835
2653
2381
2091
1847
1651
1511
1402
1264
1137
1057
1045
1107
1222
1307
1362
1351
1341
1266
1184
1156
1137
1114
1135
1151
1204
1243
1260
1278
1321
1387
1657
2080
2491
2754
2742
2554
2276
1990
1771
1584
1470
1345
1191
1072
1014
1042
1113
1249
1327
1369
1345
1297
1237
1173
1156
1118
1133
1123
1142
1204
1243
1275
1297
1332
1392
1554
1951
2446
2857
3056
2951
2659
2334
2055
1807
1632
1517
1382
1222
1088
987
971
1040
1128
1223
1274
1264
1206
1152
1085
1069
1041
1043
1072
1105
1168
1202
1245
1296
1306
1343
1386
1572
1994
2502
2923
3114
2954
2691
2368
2071
1833
1663
1510
1383
1245
1088
989
966
1013
1104
1204
1269
1267
1232
1186
1105
1092
1071
1072
1089
1089
1131
1175
1207
1267
1282
1319
1334
1379
1459
1722
2195
2715
3024
3090
2810
2534
2219
1908
1683
1528
1405
1258
1123
1006
936
965
1040
1144
1216
1250
1216
1194
1104
1066
1040
1040
1013
1046
1086
1138
1192
1226
1275
1325
1351
1369
1405
1534
1904
2400
2854
3081
2983
2707
2368
2043
1776
1572
1415
1287
1143
1022
976
1003
1078
1193
1289
1330
1326
1251
1161
1106
1071
1055
1055
1083
1099
1168
1200
1218
1247
1264
1347
1615
2067
2547
2897
2945
2734
2431
2135
1854
1648
1465
1328
1210
1067
971
953
1023
1149
1243
1310
1303
1271
1207
1139
1097
1079
1081
1082
1094
1150
1191
1237
1283
1346
1361
1392
1484
1804
2316
2838
3173
3152
2866
2527
2193
1926
1711
1584
1450
1335
1200
1082
1053
1045
1107
1186
1249
1261
1201
1131
1075
1013
982
966
994
993
1022
1098
1166
1201
1255
1294
1325
1360
1515
1874
2366
2758
2949
2848
2559
2233
1936
1678
1483
1374
1266
1166
1072
962
959
1035
1154
1255
1297
1296
1264
1195
1126
1088
1069
1068
1077
1109
1168
1191
1242
1279
1300
1328
1328
1377
1571
1975
2451
2807
2911
2747
2474
2165
1867
1643
1485
1351
1238
1111
996
944
983
1073
1207
1263
1287
1247
1206
1141
1074
1075
1055
1059
1065
1125
1174
1215
1222
1240
1269
1410
1744
2215
2624
2807
2709
2469
2178
1888
1659
1487
1360
1234
1105
1003
1008
1075
1200
1326
1383
1387
1331
1258
1184
1141
1104
1101
1104
1127
1161
1210
1219
1244
1291
1435
1840
2331
2687
2813
2686
2429
2121
1839
1635
1426
1337
1215
1079
993
955
994
1108
1248
1308
1328
1296
1221
1142
1099
1087
1079
1078
1104
1157
1204
1254
1260
1280
1298
1413
1767
2271
2730
2926
2848
2597
2283
1989
1765
1596
1461
1368
1231
1111
989
963
1006
1073
1175
1245
1232
1222
1153
1077
1040
1008
995
1018
1067
1120
1156
1198
1235
1262
1293
1322
1359
1565
2002
2503
2850
2929
2762
2467
2169
1905
1708
1561
1442
1321
1167
1037
944
964
999
1090
1183
1207
1200
1177
1098
1067
1021
1008
1012
1037
1049
1131
1163
1200
1206
1245
1255
1285
1295
1309
1367
1601
2065
2559
2909
2949
2769
2480
2177
1895
1679
1509
1388
1253
1108
941
848
848
931
1072
1177
1199
1201
1191
1150
1077
1056
1044
1047
1063
1155
1198
1242
1264
1314
1317
1339
1345
1425
1685
2138
2608
2891
2875
2659
2353
2059
1807
1626
1477
1361
1222
1101
1009
1016
1088
1251
1338
1387
1360
1319
1214
1163
1127
1084
1091
1096
1136
1178
1207
1239
1266
1309
1345
1428
1698
2137
2587
2855
2823
2611
2311
2037
1763
1564
1413
1316
1193
1041
994
989
1086
1190
1279
1313
1296
1264
1187
1107
1079
1073
1045
1051
1085
1145
1189
1232
1273
1293
1313
1337
1414
1726
2204
2650
2907
2896
2706
2395
2112
1841
1650
1488
1389
1239
1112
1031
959
1003
1085
1184
1234
1249
1214
1169
1101
1074
1035
1041
1023
1058
1104
1150
1168
1221
1264
1300
1326
1348
1387
1424
1642
2029
2511
2880
3011
2851
2589
2308
2012
1803
1616
1488
1350
1221
1078
995
975
1019
1104
1170
1203
1207
1184
1104
1057
1040
1005
989
988
1015
1040
1090
1128
1159
1175
1213
1247
1296
1323
1338
1389
1606
1981
2410
2736
2863
2756
2551
2295
2029
1817
1662
1527
1413
1269
1151
1078
1075
1109
1150
1191
1233
1223
1197
1138
1118
1082
1069
1021
1073
1088
1131
1150
1171
1191
1226
1263
1294
1422
1697
2015
2288
2429
2416
2310
2129
1957
1785
1662
1535
1437
1296
1213
1179
1190
1230
1270
1322
1334
1326
1295
1226
1174
1155
1150
1166
1163
1186
1182
1248
1237
1267
1371
1578
1829
2067
2227
2263
2192
2047
1911
1803
1697
1597
1495
1408
1328
1298
1269
1294
1338
1353
1357
1350
1325
1301
1267
1270
1245
1245
1243
1230
1239
1261
1265
1315
1319
1375
1488
1697
1935
2122
2226
2247
2170
2081
1976
1862
1776
1697
1611
1517
1419
1366
1341
1329
1335
1360
1383
1351
1328
1305
1295
1275
1264
1241
1244
1241
1245
1255
1296
1315
1329
1354
1429
1585
1781
1984
2113
2159
2138
2075
2000
1897
1839
1788
1711
1621
1569
1501
1450
1454
1456
1459
1462
1439
1421
1409
1377
1365
1342
1330
1324
1322
1326
1341
1353
1391
1409
1414
1423
1466
1535
1717
1917
2079
2179
2203
2183
2128
2058
1986
1916
1853
1797
1701
1642
1565
1521
1491
1456
1439
1413
1379
1361
1351
1334
1315
1312
1325
1320
1335
1358
1392
1414
1410
1411
1421
1431
1490
1661
1837
2031
2186
2241
2228
2167
2081
1981
1910
1859
1766
1663
1584
1512
1493
1505
1531
1535
1520
1515
1503
1479
1458
1421
1391
1365
1360
1340
1339
1345
1362
1354
1405
1495
1680
1905
2160
2334
2389
2364
2274
2142
2018
1897
1787
1671
1534
1417
1336
1301
1277
1299
1309
1302
1279
1249
1233
1200
1186
1170
1174
1178
1181
1171
1190
1223
1264
1279
1285
1299
1341
1415
1612
1909
2193
2391
2463
2396
2253
2073
1913
1776
1671
1563
1424
1314
1205
1156
1135
1147
1178
1209
1181
1169
1146
1136
1095
1088
1085
1095
1087
1123
1182
1200
1229
1264
1278
1307
1343
1373
1449
1662
1978
2288
2499
2543
2433
2276
2065
1879
1739
1639
1535
1381
1305
1216
1181
1185
1232
1263
1290
1310
1297
1241
1184
1168
1166
1167
1169
1175
1214
1257
1296
1322
1360
1374
1405
1428
1520
1761
2081
2400
2601
2608
2467
2280
2067
1877
1723
1590
1479
1360
1255
1227
1214
1280
1328
1408
1408
1402
1382
1287
1249
1231
1218
1216
1236
1233
1286
1323
1332
1350
1407
1585
1910
2274
2527
2624
2513
2337
2119
1918
1776
1633
1529
1399
1293
1232
1207
1242
1307
1382
1419
1401
1363
1309
1254
1235
1223
1200
1219
1214
1235
1282
1328
1327
1344
1370
1439
1617
1981
2389
2725
2840
2735
2512
2270
2028
1792
1674
1557
1402
1233
1094
1007
979
1023
1105
1210
1269
1282
1287
1280
1249
1248
1210
1216
1201
1203
1220
1270
1298
1346
1394
1423
1458
1470
1520
1716
2112
2608
2975
3127
2997
2729
2416
2143
1920
1749
1627
1488
1344
1217
1138
1104
1135
1186
1226
1215
1222
1159
1113
1091
1057
1041
1040
1054
1087
1141
1193
1230
1250
1292
1334
1360
1390
1414
1509
1798
2255
2668
1360
2923
2689
2371
2045
1807
1625
1485
1381
1279
1147
1072
1079
1123
1200
1296
1341
1342
1283
1207
1168
1124
1091
1092
1101
1107
1152
1207
1241
1272
1277
1343
1514
1865
2304
2655
2747
2621
2368
2090
1824
1603
1468
1334
1365
1358
1358
1333
1337
1328
1338
1331
1350
1357
1349
1360
1387
1423
1440
1422
1461
1435
1443
1479
1584
1680
1795
1867
1872
1859
1836
1799
1734
1698
1680
1658
1633
1606
1578
1559
1565
1535
1535
1554
1526
1534
1510
1502
1520
1504
1520
1509
1520
1535
1525
1582
1591
1609
1616
1629
1668
1718
1759
1799
1803
1786
1791
1755
1765
1765
1775
1774
1767
1763
1744
1758
1757
1774
1719
1680
1661
1648
1664
1669
1667
1650
1667
1673
1665
1666
1690
1683
1697
1712
1805
1837
1827
1791
1766
1699
1680
1680
1686
1698
1703
1705
1722
1718
1744
1745
1760
1792
1779
1777
1773
1762
1770
1770
1745
1749
1771
1745
1775
1775
1749
1751
1748
1744
1757
1750
1750
1778
1822
1831
1827
1828
1825
1793
1786
1777
1776
1776
1776
1792
1776
1776
1782
1780
1787
1783
1776
1783
1783
1791
1779
1783
1788
1773
1776
1773
1776
1763
1786
1787
1779
1796
1789
1791
1807
1838
1850
1856
1872
1877
1850
1840
1838
1823
1809
1810
1798
1798
1792
1790
1799
1814
1809
1817
1808
1806
1811
1807
1798
1793
1803
1799
1790
1813
1814
1829
1850
1840
1835
1825
1832
1838
1855
1872
1894
1878
1877
1859
1853
1846
1838
1830
1834
1829
1840
1840
1836
1830
1830
1843
1831
1839
1845
1838
1838
1830
1831
1822
1822
1842
1826
1827
1824
1815
1817
1819
1821
1836
1872
1904
1936
1969
1985
1974
1979
1995
1958
1981
1956
1942
1922
1875
1885
1894
1887
1917
1899
1919
1893
1904
1879
1865
1851
1840
1827
1823
1808
1815
1804
1795
1808
1902
1967
2039
2130
2187
2198
2203
2145
2143
2077
2022
1978
1931
1898
1857
1846
1826
1814
1808
1807
1792
1754
1728
1712
1687
1649
1647
1631
1631
1606
1616
1610
1712
1845
2007
2146
2252
2279
2256
2221
2131
2047
1983
1915
1839
1788
1723
1678
1648
1630
1615
1600
1584
1554
1524
1469
1435
1398
1379
1391
1353
1328
1333
1360
1506
1711
1931
2128
2239
2223
2157
2063
1931
1826
1743
1648
1535
1457
1392
1351
1350
1360
1371
1359
1341
1293
1258
1225
1183
1160
1155
1138
1132
1143
1152
1266
1422
1662
1898
2068
2109
2069
1978
1826
1702
1610
1531
1456
1349
1300
1278
1246
1270
1313
1315
1328
1296
1267
1244
1233
1231
1207
1190
1197
1185
1254
1421
1664
1899
2080
2128
2081
1997
1857
1728
1628
1561
1470
1363
1324
1306
1302
1341
1374
1411
1403
1361
