1243
1213
1155
1104
1091
1090
1111
1150
1241
1251
1248
1246
1213
1175
1090
1091
1117
1122
1230
1255
1262
1280
1277
1291
1261
1262
1264
1283
1359
1489
1645
1744
1783
1718
1598
1493
1392
1341
1287
1251
1211
1183
1133
1083
1078
1101
1206
1232
1233
1243
1222
1199
1200
1200
1168
1174
1185
1191
1223
1218
1215
1224
1251
1283
1293
1270
1275
1270
1296
1380
1535
1692
1754
1744
1689
1579
1451
1392
1343
1310
1289
1232
1197
1147
1136
1132
1167
1259
1302
1306
1305
1296
1271
1253
1267
1263
1254
1249
1251
1274
1264
1282
1287
1296
1291
1294
1317
1348
1466
1623
1729
1781
1749
1692
1535
1461
1417
1342
1318
1296
1250
1213
1202
1203
1222
1246
1328
1344
1313
1292
1271
1205
1179
1180
1176
1170
1182
1207
1277
1263
1263
1267
1286
1270
1296
1345
1475
1635
1755
1792
1757
1696
1570
1486
1440
1392
1343
1321
1277
1227
1182
1175
1192
1211
1220
1221
1235
1217
1216
1231
1223
1200
1229
1229
1221
1241
1275
1326
1328
1316
1324
1299
1334
1329
1386
1488
1659
1797
1872
1834
1753
1629
1555
1482
1424
1382
1357
1291
1238
1214
1201
1200
1230
1258
1312
1317
1283
1275
1179
1167
1165
1182
1184
1173
1249
1286
1291
1296
1267
1270
1271
1298
1415
1535
1702
1779
1772
1719
1590
1477
1392
1343
1331
1287
1266
1199
1179
1213
1231
1325
1354
1344
1328
1299
1219
1171
1170
1185
1183
1197
1215
1296
1311
1299
1299
1286
1299
1365
1487
1666
1790
1849
1806
1739
1599
1523
1435
1411
1389
1343
1286
1253
1228
1190
1201
1225
1261
1247
1232
1231
1224
1212
1199
1211
1197
1220
1215
1251
1296
1295
1296
1309
1294
1283
1319
1394
1582
1727
1829
1833
1774
1691
1566
1473
1408
1360
1351
1305
1261
1201
1185
1187
1195
1227
1314
1328
1306
1295
1274
1255
1247
1257
1249
1261
1263
1265
1266
1287
1284
1293
1296
1311
1335
1386
1511
1670
1776
1841
1797
1712
1559
1459
1394
1350
1328
1306
1260
1217
1204
1243
1255
1367
1389
1387
1365
1341
1243
1214
1189
1210
1201
1186
1200
1243
1296
1311
1296
1283
1347
1432
1584
1729
1782
1751
1680
1535
1451
1376
1328
1305
1286
1249
1239
1194
1202
1232
1300
1338
1339
1313
1282
1184
1163
1168
1166
1178
1200
1287
1289
1267
1271
1260
1251
1273
1332
1477
1648
1744
1775
1727
1639
1502
1449
1399
1374
1360
1317
1270
1247
1202
1203
1218
1230
1260
1232
1238
1216
1200
1214
1199
1194
1226
1303
1319
1300
1300
1323
1311
1317
1306
1299
1303
1335
1383
1515
1694
1810
1871
1817
1744
1591
1519
1456
1409
1380
1339
1311
1234
1203
1201
1199
1223
1250
1330
1326
1321
1298
1223
1163
1155
1159
1190
1196
1287
1295
1297
1312
1294
1312
1296
1298
1328
1325
1314
1347
1446
1603
1765
1847
1854
1797
1676
1535
1459
1421
1379
1370
1333
1290
1246
1232
1239
1248
1312
1370
1366
1341
1315
1218
1200
1186
1210
1216
1233
1314
1326
1334
1315
1301
1309
1307
1378
1490
1637
1758
1776
1728
1654
1498
1431
1366
1343
1341
1294
1247
1223
1197
1229
1328
1366
1379
1360
1330
1329
1221
1193
1175
1193
1212
1200
1222
1317
1326
1342
1331
1312
1328
1387
1498
1655
1778
1808
1763
1692
1535
1456
1413
1405
1390
1353
1296
1244
1232
1222
1238
1259
1329
1362
1349
1328
1297
1183
1179
1169
1177
1189
1264
1294
1299
1296
1325
1312
1319
1319
1319
1333
1366
1471
1654
1808
1898
1889
1810
1678
1565
1491
1456
1438
1424
1378
1315
1253
1247
1233
1238
1258
1281
1289
1264
1246
1222
1227
1222
1213
1216
1232
1234
1245
1323
1328
1328
1307
1292
1286
1293
1279
1291
1360
1519
1673
1794
1830
1797
1698
1535
1469
1421
1388
1357
1314
1255
1223
1165
1159
1168
1204
1277
1306
1295
1276
1250
1136
1127
1146
1143
1151
1168
1265
1274
1275
1265
1264
1258
1280
1366
1517
1651
1731
1731
1659
1527
1424
1358
1335
1297
1252
1214
1136
1146
1149
1166
1237
1296
1296
1296
1280
1191
1136
1163
1159
1155
1156
1179
1276
1277
1269
1277
1275
1250
1294
1414
1579
1739
1806
1802
1719
1559
1465
1405
1360
1330
1295
1259
1215
1178
1153
1178
1194
1223
1322
1314
1271
1245
1155
1138
1130
1157
1178
1251
1297
1287
1271
1294
1287
1303
1308
1279
1290
1313
1426
1593
1758
1840
1822
1759
1621
1504
1438
1393
1373
1360
1313
1280
1222
1205
1207
1217
1219
1223
1262
1237
1231
1216
1215
1186
1184
1173
1186
1198
1278
1307
1325
1275
1284
1291
1283
1275
1267
1291
1387
1535
1697
1776
1786
1701
1573
1455
1392
1339
1317
1285
1254
1211
1177
1155
1182
1211
1322
1319
1316
1296
1272
1179
1151
1158
1168
1186
1295
1305
1322
1315
1322
1327
1328
1309
1348
1457
1621
1761
1799
1776
1665
1505
1408
1339
1296
1279
1232
1175
1151
1127
1131
1197
1308
1322
1295
1259
1167
1115
1111
1110
1131
1133
1227
1268
1254
1247
1249
1254
1263
1258
1315
1435
1619
1743
1797
1767
1682
1553
1424
1360
1315
1310
1280
1250
1186
1154
1143
1169
1246
1338
1322
1323
1276
1169
1120
1136
1142
1155
1158
1189
1255
1295
1294
1301
1311
1310
1299
1306
1316
1343
1427
1613
1799
1872
1874
1802
1655
1522
1430
1366
1357
1309
1263
1211
1152
1132
1147
1195
1267
1327
1321
1315
1281
1203
1139
1138
1146
1167
1186
1281
1296
1275
1290
1287
1265
1294
1274
1279
1286
1367
1498
1675
1808
1877
1828
1759
1587
1486
1408
1372
1331
1322
1281
1230
1200
1173
1181
1233
1338
1360
1334
1307
1205
1136
1154
1182
1180
1190
1187
1296
1328
1344
1309
1297
1296
1326
1441
1601
1762
1825
1793
1726
1571
1431
1351
1310
1297
1279
1207
1179
1151
1178
1222
1359
1344
1325
1309
1281
1181
1141
1155
1175
1193
1247
1329
1331
1330
1334
1317
1328
1343
1434
1579
1744
1836
1859
1808
1671
1520
1441
1398
1371
1364
1319
1264
1230
1222
1233
1262
1213
1388
1374
1338
1226
1166
1171
1165
1168
1178
1169
1183
1282
1313
1327
1326
1318
1303
1307
1325
1407
1526
1691
1830
1883
1840
1730
1565
1465
1414
1370
1352
1313
1267
1230
1170
1175
1195
1215
1301
1330
1334
1313
1498
1406
1348
1310
1264
1222
1136
1095
1095
1117
1157
1271
1285
1279
1251
1219
1153
1124
1135
1130
1168
1215
1241
1251
1259
1281
1249
1246
1267
1327
1501
1674
1815
1863
1803
1687
1534
1424
1364
1309
1290
1248
1193
1136
1115
1113
1149
1232
1279
1279
1261
1238
1232
1137
1133
1132
1117
1148
1168
1258
1245
1237
1254
1264
1264
1270
1265
1259
1325
1493
1712
1888
1934
1898
1799
1629
1523
1439
1392
1363
1327
1263
1205
1136
1124
1133
1170
1251
1267
1264
1219
1211
1200
1194
1171
1091
1104
1113
1185
1257
1253
1264
1281
1279
1291
1295
1305
1323
1315
1329
1409
1646
1856
1953
1969
1885
1740
1600
1515
1437
1386
1342
1272
1221
1165
1123
1127
1152
1193
1259
1287
1280
1273
1230
1151
1117
1136
1151
1181
1248
1253
1232
1260
1266
1260
1277
1263
1261
1266
1271
1295
1376
1562
1760
1907
1934
1875
1744
1591
1477
1422
1328
1335
1291
1223
1162
1153
1182
1211
1301
1341
1314
1294
1219
1156
1152
1137
1159
1149
1162
1166
1251
1285
1279
1270
1271
1270
1284
1344
1509
1711
1840
1885
1841
1744
1593
1485
1415
1361
1312
1269
1197
1148
1122
1133
1150
1173
1278
1267
1246
1211
1123
1104
1104
1123
1125
1160
1207
1243
1232
1235
1249
1243
1247
1243
1237
1254
1354
1529
1719
1854
1876
1825
1746
1593
1498
1430
1389
1360
1302
1254
1172
1118
1095
1104
1115
1166
1226
1229
1217
1207
1169
1090
1088
1104
1105
1139
1202
1207
1213
1223
1222
1221
1232
1264
1235
1235
1264
1327
1513
1707
1874
1927
1878
1789
1616
1520
1445
1396
1339
1293
1245
1159
1122
1104
1108
1125
1198
1269
1248
1234
1227
1154
1104
1091
1102
1109
1121
1132
1193
1232
1209
1206
1215
1227
1261
1251
1247
1248
1294
1423
1637
1785
1879
1878
1803
1635
1504
1438
1376
1328
1296
1248
1173
1133
1126
1136
1165
1259
1275
1291
1237
1170
1114
1131
1118
1116
1146
1218
1231
1227
1221
1223
1246
1264
1273
1269
1360
1535
1718
1843
1871
1803
1650
1520
1426
1370
1331
1300
1238
1172
1107
1104
1127
1158
1248
1249
1237
1218
1135
1088
1088
1089
1094
1093
1108
1213
1232
1231
1243
1234
1249
1258
1260
1264
1363
1553
1745
1898
1920
1868
1744
1602
1493
1439
1391
1354
1291
1226
1178
1125
1119
1136
1171
1271
1296
1283
1264
1245
1215
1159
1116
1126
1116
1104
1127
1232
1255
1232
1264
1270
1271
1263
1277
1271
1386
1556
1770
1919
1958
1914
1809
1648
1563
1469
1418
1367
1323
1243
1166
1105
1083
1091
1110
1139
1168
1231
1200
1165
1115
1067
1055
1065
1069
1077
1147
1194
1216
1216
1229
1225
1261
1259
1263
1266
1232
1277
1396
1624
1823
1931
1914
1846
1694
1559
1463
1401
1350
1322
1248
1180
1124
1113
1111
1130
1168
1251
1251
1243
1181
1095
1072
1076
1102
1115
1179
1188
1193
1210
1219
1239
1218
1223
1217
1223
1327
1512
1717
1843
1872
1835
1717
1535
1439
1361
1307
1255
1209
1136
1090
1045
1111
1200
1237
1247
1225
1213
1210
1131
1111
1117
1115
1123
1126
1125
1218
1235
1238
1232
1235
1242
1286
1436
1646
1838
1903
1885
1798
1645
1533
1456
1395
1349
1296
1249
1167
1106
1083
1088
1106
1133
1141
1132
1117
1129
1122
1118
1126
1136
1131
1180
1200
1218
1199
1213
1244
1251
1235
1227
1247
1264
1323
1473
1685
1871
1954
1923
1826
1671
1567
1498
1414
1345
1321
1254
1179
1111
1093
1087
1107
1143
1201
1220
1197
1185
1093
1046
1072
1064
1054
1073
1087
1168
1185
1214
1223
1234
1239
1254
1253
1279
1265
1291
1392
1584
1779
1931
1965
1931
1806
1661
1535
1449
1393
1341
1296
1232
1159
1113
1085
1117
1124
1170
1237
1225
1216
1136
1072
1065
1065
1083
1091
1097
1133
1183
1205
1206
1215
1203
1216
1201
1225
1281
1425
1642
1821
1921
1899
1791
1649
1502
1389
1333
1285
1250
1168
1104
1066
1070
1099
1191
1251
1242
1209
1190
1094
1082
1074
1092
1077
1081
1104
1177
1203
1214
1222
1199
1198
1232
1312
1530
1743
1878
1920
1869
1761
1598
1476
1393
1321
1289
1217
1180
1093
1045
1058
1114
1179
1236
1232
1219
1137
1072
1088
1085
1085
1103
1104
1157
1202
1221
1217
1232
1227
1231
1227
1243
1230
1250
1360
1559
1793
1966
1993
1924
1808
1641
1535
1413
1335
1291
1245
1161
1085
1040
997
1035
1072
1167
1191
1174
1143
1088
1040
1053
1053
1041
1053
1063
1133
1152
1167
1199
1189
1202
1227
1227
1232
1258
1247
1267
1335
1535
1783
1973
2016
1965
1834
1669
1570
1462
1357
1306
1274
1205
1126
1074
1040
1048
1116
1201
1220
1196
1164
1168
1084
1046
1041
1023
1043
1087
1151
1156
1162
1178
1185
1199
1203
1223
1216
1225
1229
1264
1398
1609
1859
1939
1942
1887
1744
1582
1475
1369
1321
1274
1217
1135
1091
1083
1098
1143
1227
1249
1241
1216
1147
1105
1072
1069
1061
1082
1153
1172
1193
1213
1209
1228
1212
1211
1223
1250
1349
1566
1744
1889
1899
1818
1680
1535
1423
1321
1263
1226
1169
1047
1043
1047
1075
1155
1213
1215
1217
1200
1165
1104
1067
1051
1073
1081
1081
1171
1164
1152
1159
1174
1211
1220
1207
1227
1319
1535
1778
1927
1985
1938
1807
1670
1535
1451
1383
1339
1280
1227
1136
1069
1045
1081
1093
1162
1200
1210
1169
1139
1059
1036
1045
1023
1049
1022
1103
1183
1193
1189
1232
1227
1218
1222
1223
1255
1399
1650
1876
2006
2021
1932
1797
1649
1530
1407
1346
1278
1231
1162
1079
1036
1013
1041
1097
1168
1202
1203
1159
1135
1065
1066
1066
1070
1072
1088
1160
1189
1187
1177
1198
1210
1105
1168
1179
1168
1163
1136
1155
1179
1278
1465
1693
1883
1920
1879
1679
1517
1382
1280
1197
1164
1131
1077
1003
966
999
1063
1185
1247
1239
1215
1195
1159
1085
1065
1040
1066
1072
1098
1183
1210
1181
1191
1237
1360
1530
1734
1838
1847
1743
1556
1411
1270
1203
1140
1105
1033
976
945
979
1041
1151
1186
1193
1166
1136
1109
1023
1001
1023
1038
1060
1125
1174
1174
1170
1178
1252
1405
1650
1791
1839
1765
1566
1437
1318
1227
1197
1162
1135
1040
988
971
1008
1126
1171
1198
1189
1166
1115
1054
1061
1039
1054
1088
1184
1225
1207
1210
1211
1215
1257
1400
1604
1765
1819
1767
1607
1418
1321
1279
1255
1216
1176
1117
1059
1005
995
1011
1091
1179
1207
1194
1141
1117
1038
998
1008
1045
1168
1193
1173
1157
1136
1175
1279
1449
1648
1776
1773
1715
1632
1486
1379
1299
1217
1136
1050
976
962
993
1023
1163
1206
1209
1193
1146
1049
988
1004
1005
1047
1133
1153
1178
1163
1183
1199
1242
1382
1625
1809
1882
1811
1616
1465
1346
1269
1218
1201
1164
1138
1069
991
960
990
1046
1151
1149
1167
1153
1136
1126
1114
1104
1091
1078
1103
1122
1158
1151
1152
1191
1193
1202
1237
1418
1678
1867
1899
1808
1662
1478
1360
1247
1183
1155
1106
1068
1001
942
917
941
1058
1131
1171
1169
1152
1130
1119
1111
1128
1104
1097
1072
1068
1072
1105
1122
1114
1105
1126
1158
1163
1135
1175
1348
1573
1765
1819
1783
1676
1520
1394
1314
1265
1223
1209
1159
1082
1040
1010
1031
1079
1177
1181
1173
1181
1156
1046
1010
1010
1006
1015
1119
1179
1200
1203
1202
1217
1200
1202
1232
1232
1233
1233
1234
1311
1498
1698
1834
1869
1793
1670
1523
1432
1390
1329
1296
1277
1200
1151
1088
1059
1063
1121
1211
1233
1196
1081
1018
1022
1042
1065
1053
1067
1157
1205
1200
1213
1215
1236
1236
1261
1266
1275
1251
1249
1245
1295
1392
1559
1719
1788
1771
1682
1535
1441
1354
1299
1258
1168
1135
1101
1091
1115
1133
1271
1301
1332
1309
1301
1273
1154
1136
1141
1149
1177
1280
1298
1292
1296
1283
1296
1307
1314
1311
1317
1302
1343
1411
1565
1651
1680
1657
1586
1411
1348
1321
1317
1309
1269
1262
1264
1296
1390
1394
1363
1341
1330
1318
1232
1178
1197
1187
1194
1191
1261
1353
1351
1301
1281
1152
1147
1406
1584
1744
1837
1838
1793
1727
1583
1474
1423
1358
1330
1287
1235
1195
1194
1241
1328
1360
1355
1314
1200
1173
1122
1046
1066
1097
1114
1189
1244
1228
1215
1241
1271
1293
1290
1322
1473
1666
1847
1909
1917
1842
1679
1557
1466
1385
1334
1265
1206
1155
1119
1100
1104
1113
1130
1274
1277
1231
1120
1066
1067
1060
1072
1077
1173
1227
1239
1232
1247
1249
1269
1255
1291
1390
1567
1751
1868
1882
1789
1606
1483
1372
1290
1209
1163
1082
1023
998
1008
1040
1161
1241
1264
1227
1196
1173
1179
1088
1043
1072
1105
1209
1233
1246
1235
1220
1232
1225
1273
1378
1535
1675
1740
1727
1657
1451
1343
1264
1199
1139
1099
1063
1085
1127
1264
1321
1345
1357
1339
1297
1183
1120
1105
1109
1126
1129
1167
1246
1232
1248
1255
1281
1375
1527
1694
1791
1775
1681
1503
1373
1264
1200
1167
1135
1072
1046
1061
1110
1245
1285
1297
1289
1280
1235
1234
1152
1111
1114
1149
1158
1275
1277
1269
1285
1309
1328
1488
1674
1831
1885
1871
1765
1555
1424
1323
1248
1190
1142
1121
1070
1023
1040
1062
1136
1211
1223
1231
1191
1072
1042
1056
1054
1054
1137
1207
1231
1187
1186
1204
1182
1200
1223
1346
1535
1734
1856
1869
1776
1627
1493
1363
1289
1219
1179
1166
1104
1078
1041
1045
1097
1220
1232
1235
1201
1199
1170
1072
1023
1036
1054
1079
1221
1230
1242
1264
1287
1282
1291
1308
1313
1375
1535
1782
1925
1931
1842
1681
1515
1406
1304
1250
1201
1143
1088
1065
1040
1051
1072
1187
1209
1258
1216
1187
1062
1059
1040
1072
1099
1200
1205
1218
1199
1200
1195
1245
1363
1565
1736
1792
1753
1669
1490
1366
1280
1209
1187
1171
1114
1079
1042
1079
1110
1235
1282
1271
1245
1227
1135
1073
1090
1078
1079
1091
1104
1218
1233
1245
1243
1271
1254
1348
1534
1744
1851
1869
1803
1633
1483
1355
1293
1232
1201
1182
1111
1067
1038
1040
1091
1232
1253
1281
1249
1223
1090
1086
1092
1088
1085
1109
1217
1239
1231
1218
1247
1251
1264
1279
1296
1339
1494
1712
1902
1970
1929
1827
1637
1501
1366
1264
1234
1200
1157
1106
1063
1071
1072
1119
1251
1266
1253
1216
1097
1068
1061
1039
1055
1065
1165
1191
1219
1215
1211
1210
1227
1309
1461
1671
1799
1832
1774
1633
1456
1371
1281
1227
1187
1165
1091
1053
1070
1093
1201
1290
1285
1271
1250
1155
1091
1087
1088
1088
1102
1226
1245
1259
1251
1267
1296
1339
1344
1451
1613
1777
1886
1869
1763
1584
1435
1323
1280
1242
1232
1202
1134
1064
1053
1057
1104
1232
1225
1207
1163
1069
1013
1018
1041
1065
1137
1184
1200
1206
1232
1225
1215
1186
1200
1207
1186
1196
1210
1264
1460
1710
1876
1945
1893
1755
1553
1381
1291
1249
1222
1186
1151
1111
1063
1057
1072
1082
1169
1232
1200
1197
1142
1052
1047
1061
1092
1174
1191
1197
1200
1212
1205
1215
1242
1267
1281
1280
1293
1291
1322
1420
1599
1822
1946
1987
1898
1722
1535
1398
1290
1237
1173
1115
1088
1046
1049
1040
1072
1147
1238
1255
1257
1213
1141
1054
1047
1071
1078
1075
1097
1227
1223
1215
1232
1227
1225
1265
1261
1263
1277
1282
1293
1327
1446
1646
1828
1936
1899
1815
1613
1458
1368
1287
1249
1222
1168
1124
1102
1099
1129
1265
1312
1311
1297
1259
1251
1231
1111
1126
1135
1167
1232
1282
1291
1290
1275
1265
1265
1282
1258
1281
1276
1279
1321
1424
1621
1827
1939
1926
1849
1675
1506
1390
1301
1232
1185
1137
1104
1075
1106
1126
1263
1310
1314
1306
1267
1249
1105
1088
1107
1125
1142
1242
1264
1266
1255
1265
1257
1255
1264
1264
1296
1330
1458
1657
1840
1942
1947
1871
1668
1502
1372
1283
1209
1149
1094
1073
1091
1104
1205
1296
1312
1300
1266
1202
1102
1107
1104
1104
1104
1121
1225
1264
1268
1274
1265
1273
1262
1365
1535
1758
1903
1936
1867
1727
1535
1424
1328
1257
1215
1157
1104
1063
1046
1072
1136
1265
1280
1270
1239
1210
1118
1058
1051
1058
1085
1121
1234
1253
1261
1243
1232
1252
1266
1291
1328
1441
1664
1871
1987
1977
1879
1684
1514
1378
1290
1241
1197
1163
1110
1079
1067
1105
1202
1310
1328
1302
1270
1249
1136
1113
1132
1134
1133
1137
1157
1280
1289
1296
1295
1296
1296
1314
1353
1478
1705
1855
1931
1910
1811
1601
1443
1333
1266
1229
1187
1136
1117
1105
1134
1147
1279
1313
1310
1296
1266
1253
1231
1221
1213
1067
1095
1079
1109
1177
1282
1277
1277
1297
1289
1282
1328
1450
1657
1849
1982
2004
1936
1776
1584
1447
1360
1296
1255
1235
1181
1168
1167
1187
1232
1345
1347
1314
1153
1099
1090
1079
1072
1062
1057
1055
1074
1232
1288
1296
1310
1322
1340
1341
1367
1493
1680
1862
2014
2037
1983
1808
1620
1510
1406
1340
1286
1250
1200
1186
1201
1232
1355
1424
1418
1405
1381
1245
1195
1203
1193
1211
1202
1215
1237
1332
1349
1346
1325
1327
1357
1449
1639
1826
1936
1969
1899
1723
1595
1477
1383
1328
1263
1200
1155
1153
1169
1221
1360
1387
1383
1339
1251
1143
1121
1117
1141
1137
1146
1248
1295
1297
1270
1258
1299
1446
1634
1819
1905
1898
1815
1616
1455
1359
1278
1216
1172
1109
1063
1051
1077
1191
1294
1303
1314
1304
1257
1136
1099
1091
1089
1104
1126
1232
1242
1268
1268
1255
1265
1251
1360
1535
1767
1891
1909
1831
1673
1483
1355
1283
1230
1167
1126
1081
1008
979
996
1051
1194
1222
1246
1237
1207
1179
1109
1047
1073
1073
1136
1223
1231
1250
1229
1242
1223
1221
1239
1335
1498
1742
1895
1962
1904
1775
1535
1398
1303
1227
1215
1167
1120
1054
1049
1058
1088
1202
1249
1236
1243
1214
1190
1179
1190
1189
1202
1231
1227
1229
1225
1236
1249
1249
1258
1264
1264
1262
1263
1364
1514
1742
1876
1904
1831
1669
1486
1362
1250
1194
1135
1106
1078
1040
1013
1040
1079
1243
1254
1242
1247
1232
1195
1179
1066
1069
1091
1108
1242
1242
1235
1238
1271
1255
1259
1258
1282
1264
1263
1266
1291
1407
1616
1806
1921
1930
1808
1636
1494
1372
1305
1248
1232
1182
1124
1085
1104
1123
1168
1279
1296
1297
1257
1231
1094
1088
1075
1092
1109
1090
1242
1237
1282
1277
1280
1280
1286
1301
1360
1520
1724
1841
1870
1803
1647
1476
1360
1279
1232
1194
1149
1101
1071
1072
1136
1287
1298
1299
1287
1266
1143
1098
1115
1105
1127
1136
1169
1279
1274
1280
1280
1294
1291
1277
1359
1520
1725
1899
1968
1910
1781
1569
1429
1339
1269
1206
1165
1113
1073
1064
1053
1104
1237
1268
1286
1259
1235
1201
1075
1078
1091
1093
1186
1246
1247
1252
1254
1264
1296
1291
1297
1290
1286
1333
1467
1671
1869
1963
1931
1831
1643
1481
1375
1289
1238
1191
1147
1073
1063
1061
1072
1117
1255
1293
1283
1245
1207
1117
1073
1075
1093
1105
1205
1254
1265
1279
1277
1296
1303
1326
1328
1325
1309
1360
1474
1666
1856
1959
1968
1852
1648
1488
1360
1277
1225
1203
1139
1089
1062
1063
1083
1104
1263
1279
1278
1242
1232
1087
1080
1072
1087
1060
1210
1257
1280
1267
1279
1314
1321
1317
1311
1337
1328
1350
1451
1637
1839
1971
1999
1923
1723
1535
1424
1349
1289
1232
1197
1133
1101
1070
1085
1127
1279
1293
1296
1264
1248
1120
1075
1090
1104
1128
1247
1257
1255
1268
1276
1280
1295
1294
1291
1297
1318
1439
1641
1819
1934
1923
1822
1643
1475
1367
1317
1265
1207
1173
1135
1119
1104
1149
1313
1346
1328
1301
1277
1132
1102
1098
1117
1135
1271
1296
1300
1286
1279
1277
1281
1279
1283
1308
1395
1585
1791
1946
1995
1947
1826
1616
1478
1386
1344
1296
1261
1196
1130
1105
1136
1170
1280
1336
1328
1291
1219
1104
1075
1089
1111
1136
1271
1280
1267
1290
1296
1298
1296
1296
1279
1300
1365
1520
1734
1939
2038
2029
1941
1743
1579
1476
1394
1353
1317
1262
1193
1127
1125
1150
1170
1324
1355
1306
1269
1175
1072
1081
1077
1109
1139
1279
1283
1277
1286
1291
1311
1296
1296
1306
1285
1296
1362
1535
1766
1968
2026
1997
1885
1680
1535
1470
1392
1328
1307
1254
1179
1136
1108
1134
1195
1338
1349
1306
1292
1131
1079
1088
1102
1129
1135
1283
1268
1292
1273
1291
1321
1320
1298
1308
1299
1315
1365
1519
1739
1923
2016
2002
1903
1739
1571
1456
1380
1341
1296
1231
1159
1126
1121
1151
1184
1315
1323
1296
1251
1107
1088
1084
1074
1104
1110
1245
1262
1264
1247
1251
1232
1240
1241
1270
1360
1535
1782
1936
1987
1921
1802
1599
1466
1397
1328
1264
1219
1182
1136
1154
1177
1313
1392
1392
1344
1303
1157
1106
1097
1102
1105
1101
1111
1134
1248
1259
1251
1296
1303
1290
1269
1287
1417
1629
1867
1990
2017
1942
1779
1616
1503
1442
1383
1342
1294
1219
1147
1141
1123
1167
1285
1360
1323
1274
1154
1099
1110
1130
1136
1147
1289
1293
1297
1302
1281
1284
1282
1299
1285
1296
1296
1306
1424
1633
1925
1968
1983
1915
1743
1598
1488
1449
1388
1350
1291
1219
1150
1135
1126
1164
1207
1293
1278
1233
1088
1051
1023
1023
1046
1184
1237
1234
1243
1224
1253
1264
1273
1287
1282
1283
1285
1316
1394
1589
1810
1968
2005
1942
1258
1213
1145
1062
1020
1031
1061
1206
1264
1290
1296
1278
1238
1117
1089
1095
1111
1103
1087
1113
1117
1223
1234
1200
1194
1200
1260
1424
1680
1917
2038
2026
1958
1764
1602
1477
1390
1301
1232
1157
1074
1018
975
981
1011
1067
1200
1207
1197
1189
1163
1043
983
978
986
1001
1123
1161
1179
1189
1182
1203
1198
1200
1226
1231
1254
1328
1535
1818
2016
2087
2019
1888
1690
1562
1424
1323
1232
1211
1167
1111
1074
1068
1089
1178
1290
1292
1273
1250
1232
1095
1083
1069
1066
1066
1072
1092
1202
1221
1243
1282
1329
1331
1353
1426
1610
1824
2006
2060
2010
1875
1636
1477
1395
1333
1258
1187
1104
1087
1103
1107
1152
1226
1268
1244
1200
1074
1055
1040
1046
1075
1142
1229
1232
1230
1213
1191
1211
1334
1535
1762
1902
1936
1872
1693
1492
1349
1286
1232
1184
1059
985
927
955
1039
1218
1298
1314
1293
1261
1239
1097
1072
1099
1111
1221
1264
1265
1270
1265
1259
1278
1451
1718
1917
2019
1973
1857
1650
1502
1389
1311
1237
1165
1120
1079
1043
1023
1052
1147
1266
1290
1283
1243
1119
1047
1017
1044
1056
1088
1088
1154
1217
1257
1242
1235
1232
1253
1388
1622
1883
2062
2093
2001
1825
1637
1497
1393
1315
1264
1197
1106
1023
978
991
1020
1078
1218
1231
1221
1182
1122
1021
1013
1018
1023
1063
1162
1200
1220
1206
1219
1233
1242
1261
1258
1291
1437
1675
1971
2165
2206
2128
1997
1759
1575
1439
1363
1295
1236
1154
1070
1008
1008
1009
1075
1186
1259
1251
1216
1170
1041
1038
1042
1040
1051
1059
1179
1201
1214
1230
1248
1260
1250
1253
1265
1278
1286
1296
1335
1508
1777
2035
2207
2193
2080
1853
1666
1515
1382
1299
1219
1168
1061
981
971
992
1046
1175
1241
1243
1216
1183
1105
1042
1016
1038
1056
1167
1200
1197
1207
1211
1232
1241
1262
1264
1286
1284
1283
1345
1515
1758
1986
2107
2098
1983
1769
1591
1438
1306
1232
1163
1089
1015
999
991
1045
1177
1257
1271
1268
1232
1130
1062
1049
1062
1077
1072
1088
1200
1227
1230
1232
1238
1238
1264
1300
1424
1643
1899
2025
2039
1933
1754
1558
1409
1298
1246
1174
1089
1013
976
982
1066
1198
1256
1275
1265
1249
1151
1066
1047
1067
1061
1071
1065
1185
1246
1234
1241
1235
1265
1257
1277
1293
1393
1602
1873
2098
2201
2146
1998
1780
1584
1446
1357
1302
1214
1146
1049
1008
987
1006
1055
1193
1204
1213
1200
1147
1010
1014
1014
1017
1065
1171
1183
1195
1185
1213
1215
1232
1254
1261
1267
1291
1390
1612
1903
2146
2224
2183
2033
1790
1600
1464
1353
1279
1229
1133
1051
991
993
1047
1095
1230
1250
1238
1188
1101
1039
1017
1003
1014
1042
1149
1182
1197
1179
1202
1199
1219
1247
1265
1263
1271
1295
1305
1361
1584
1865
2128
2282
2267
2150
1931
1735
1576
1455
1346
1287
1205
1104
1047
1010
1051
1086
1146
1243
1245
1231
1183
1063
1022
1034
1044
1070
1131
1195
1208
1203
1191
1201
1205
1232
1233
1239
1236
1273
1369
1591
1857
2082
2160
2106
1968
1751
1559
1423
1328
1231
1179
1099
1005
976
1012
1049
1217
1264
1255
1232
1218
1099
1047
1019
1040
1042
1062
1147
1210
1213
1216
1232
1234
1232
1248
1328
1511
1776
2000
2112
2078
1942
1749
1570
1440
1338
1268
1183
1115
1042
1015
1035
1084
1229
1270
1255
1250
1195
1090
1047
1043
1056
1062
1083
1195
1203
1211
1228
1234
1255
1263
1292
1411
1655
1927
2128
2176
2113
1953
1744
1584
1453
1373
1289
1212
1124
1035
981
994
1046
1096
1221
1229
1201
1165
1099
1023
1010
1034
1043
1040
1104
1168
1173
1203
1203
1217
1229
1257
1301
1486
1770
2026
2176
2179
2066
1863
1683
1535
1441
1354
1267
1182
1105
1037
969
1014
1064
1146
1209
1216
1186
1166
1081
1022
1005
995
1008
1010
1041
1141
1147
1155
1182
1184
1200
1216
1203
1206
1273
1456
1718
1958
2074
2047
1923
1753
1569
1440
1331
1291
1230
1152
1042
976
972
976
1023
1117
1177
1155
1140
1115
1031
954
991
1023
1005
1023
1131
1157
1159
1188
1194
1215
1222
1231
1215
1271
1387
1634
1870
1987
1975
1850
1667
1520
1393
1301
1258
1217
1130
1059
1008
1008
1054
1184
1244
1255
1216
1187
1124
1077
1053
1057
1072
1083
1074
1136
1194
1209
1213
1200
1203
1221
1261
1489
1712
1905
1951
1890
1721
1556
1418
1303
1237
1202
1149
1071
998
985
1009
1075
1179
1200
1200
1191
1151
1067
1015
1003
1020
1047
1111
1159
1168
1183
1206
1227
1247
1251
1253
1262
1277
1358
1535
1793
1971
2019
1940
1805
1616
1477
1362
1305
1252
1226
1131
1058
1008
978
1017
1109
1197
1202
1225
1187
1154
1055
1040
1039
1045
1042
1071
1147
1182
1196
1194
1202
1226
1238
1243
1226
1227
1243
1277
1389
1635
1861
2015
2025
1934
1744
1583
1438
1344
1296
1243
1200
1130
1054
1009
1007
1057
1173
1215
1243
1211
1182
1151
1072
1057
1043
1072
1093
1174
1186
1200
1201
1206
1200
1235
1247
1259
1263
1267
1263
1255
1265
1344
1535
1802
1985
2061
1973
1839
1611
1456
1359
1274
1231
1197
1107
1037
960
976
1040
1171
1225
1257
1245
1223
1193
1136
1077
1110
1109
1163
1235
1225
1242
1239
1246
1233
1264
1285
1280
1292
1291
1307
1414
1622
1851
1978
1991
1904
1705
1535
1379
1287
1212
1155
1102
1039
1023
1023
1087
1226
1284
1303
1277
1254
1136
1103
1104
1099
1120
1119
1134
1168
1237
1232
1254
1235
1254
1275
1280
1275
1264
1265
1407
1653
1911
2057
2075
1978
1803
1620
1478
1360
1301
1264
1213
1115
1055
1000
1035
1072
1205
1243
1237
1225
1207
1129
1089
1077
1082
1091
1103
1191
1212
1217
1226
1242
1234
1231
1256
1259
1281
1279
1297
1286
1294
1334
1487
1773
1997
2128
2114
2006
1799
1639
1490
1406
1321
1269
1223
1139
1073
1040
1060
1088
1209
1243
1264
1233
1185
1077
1066
1067
1055
1071
1077
1194
1200
1213
1207
1231
1223
1240
1235
1258
1269
1273
1267
1265
1297
1433
1693
1943
2106
2114
2006
1822
1628
1473
1366
1303
1278
1217
1155
1113
1058
1072
1102
1187
1246
1255
1254
1222
1098
1071
1063
1061
1072
1088
1179
1221
1232
1231
1235
1222
1223
1243
1243
1305
1488
1731
1921
2003
1959
1830
1632
1467
1343
1271
1231
1177
1108
1051
1052
1065
1177
1297
1325
1314
1287
1257
1127
1104
1104
1089
1113
1125
1232
1258
1251
1241
1268
1270
1253
1328
1494
1779
1987
2099
2054
1949
1738
1585
1476
1362
1297
1250
1180
1107
1040
1034
1100
1185
1261
1302
1261
1221
1098
1072
1065
1072
1068
1086
1153
1207
1213
1218
1243
1250
1249
1239
1291
1439
1678
1923
2093
2102
2016
1834
1642
1513
1429
1366
1322
1233
1143
1072
1023
1047
1069
1130
1216
1232
1202
1168
1057
1042
1016
1019
1046
1073
1171
1199
1216
1229
1213
1225
1243
1265
1293
1382
1601
1887
2155
2256
2209
2070
1857
1692
1587
1554
1517
1441
1303
1164
1023
949
915
967
1008
1120
1155
1137
1105
1040
966
947
977
990
1023
1121
1137
1136
1168
1175
1185
1201
1221
1243
1232
1251
1262
1363
1610
1875
2081
2142
2053
1894
1707
1535
1429
1370
1312
1264
1143
1083
1032
1037
1089
1198
1259
1264
1277
1217
1123
1078
1088
1076
1082
1057
1073
1098
1178
1219
1241
1264
1259
1271
1263
1265
1355
1534
1792
1984
2055
1995
1871
1684
1535
1455
1381
1317
1253
1165
1105
1067
1106
1151
1266
1290
1264
1232
1138
1065
1043
1040
1045
1072
1090
1138
1181
1207
1226
1228
1233
1239
1235
1265
1351
1580
1835
2007
2046
1967
1813
1639
1498
1407
1361
1310
1264
1199
1091
1041
1033
1073
1171
1245
1231
1198
1136
1066
1041
1037
1034
1041
1072
1168
1177
1202
1216
1226
1232
1251
1263
1251
1248
1251
1275
1414
1661
1933
2108
2111
2022
1854
1683
1535
1427
1366
1328
1269
1185
1093
1041
1023
1041
1090
1186
1213
1181
1168
1088
1020
1007
1008
1014
1036
1123
1146
1171
1179
1202
1234
1226
1231
1248
1249
1251
1259
1283
1413
1664
1933
2128
2137
2035
1873
1690
1558
1456
1374
1334
1292
1183
1121
1041
1023
1050
1108
1213
1232
1221
1190
1092
1042
1034
1021
1040
1059
1165
1184
1188
1216
1214
1250
1249
1252
1237
1264
1384
1598
1872
2059
2091
2019
1840
1649
1514
1408
1362
1289
1242
1153
1080
1067
1078
1127
1255
1297
1266
1232
1132
1063
1054
1042
1049
1072
1060
1102
1199
1196
1199
1202
1200
1232
1338
1564
1833
2027
2064
1995
1852
1651
1515
1403
1346
1273
1231
1123
1043
1010
1020
1093
1206
1243
1235
1205
1135
1051
1015
1032
1023
1045
1107
1168
1183
1167
1185
1204
1216
1216
1247
1393
1671
1967
2142
2175
2074
1905
1723
1618
1510
1427
1373
1289
1181
1077
1046
1038
1072
1110
1207
1225
1197
1172
1066
1014
1008
1023
1039
1072
1147
1162
1169
1188
1186
1191
1200
1226
1357
1617
1922
2114
2160
2085
1929
1730
1571
1456
1389
1328
1249
1160
1045
966
970
1003
1071
1173
1210
1184
1168
1061
1006
1003
1009
1038
1056
1130
1158
1166
1193
1185
1190
1209
1279
1475
1759
1991
2065
2011
1898
1671
1505
1408
1322
1253
1186
1093
1008
981
983
1046
1155
1201
1213
1181
1135
1041
1005
1005
1014
1008
1040
1110
1138
1142
1149
1168
1190
1252
1427
1723
1951
2078
2054
1909
1689
1517
1386
1314
1250
1187
1102
1008
962
979
1055
1152
1198
1213
1186
1149
1067
1022
1006
1010
1019
1039
1104
1153
1167
1175
1181
1193
1205
1214
1235
1343
1597
1856
2071
2114
2021
1824
1615
1455
1348
1303
1253
1187
1123
1037
958
974
999
1061
1163
1183
1167
1136
1120
1017
983
991
985
1000
1036
1119
1137
1171
1183
1200
1232
1233
1242
1255
1245
1264
1386
1631
1915
2107
2111
1993
1806
1617
1462
1343
1269
1209
1168
1095
1008
951
977
1006
1104
1187
1190
1194
1168
1111
1037
997
1003
1008
1039
1151
1155
1165
1185
1189
1232
1235
1263
1265
1265
1259
1271
1315
1461
1728
1985
2131
2110
1968
1750
1569
1411
1311
1264
1201
1123
1023
976
985
1055
1172
1243
1259
1248
1184
1104
1045
1040
1053
1058
1066
1101
1191
1202
1232
1254
1241
1237
1255
1270
1360
1599
1874
2064
2103
1994
1790
1601
1451
1349
1252
1210
1123
1057
976
963
998
1101
1207
1243
1223
1215
1166
1079
1037
1040
1050
1044
1073
1167
1200
1218
1222
1229
1253
1237
1252
1232
1314
1535
1841
2112
2182
2126
1968
1755
1584
1454
1335
1287
1232
1169
1097
1041
1069
1120
1239
1291
1275
1232
1131
1072
1048
1040
1023
1045
1070
1152
1169
1182
1211
1211
1220
1251
1275
1287
1279
1279
1269
1289
1395
1605
1901
2122
2191
2128
1957
1726
1562
1417
1328
1259
1211
1104
1019
953
930
973
1049
1147
1183
1183
1166
1147
1045
1023
1023
1023
1044
1149
1189
1190
1203
1237
1249
1257
1255
1281
1277
1287
1291
1285
1303
1354
1497
1759
2028
2166
2167
2039
1839
1654
1507
1402
1303
1257
1225
1136
1072
1043
1067
1120
1237
1264
1243
1203
1129
1058
1003
995
1007
1035
1043
1114
1147
1170
1200
1215
1209
1226
1247
1263
1258
1283
1420
1665
1919
2003
2003
1860
1702
1535
1441
1373
1329
1302
1231
1157
1116
1147
1199
1321
1343
1349
1300
1194
1152
1135
1152
1110
1091
1105
1110
1168
1230
1226
1211
1200
1198
1214
1301
1535
1783
1965
2025
1952
1802
1625
1488
1411
1305
1210
1163
1113
1078
1055
1071
1123
1251
1300
1322
1328
1280
1189
1136
1134
1139
1123
1162
1230
1261
1231
1171
1168
1190
1205
1216
1221
1221
1291
1457
1725
1959
2082
2065
1936
1758
1581
1470
1359
1281
1234
1152
1075
1020
1021
1052
1120
1218
1235
1201
1173
1089
1049
1040
1040
1038
1070
1168
1184
1202
1207
1201
1206
1225
1263
1401
1646
1899
2015
2017
1904
1735
1566
1426
1319
1232
1173
1102
1034
1015
1021
1056
1211
1234
1230
1227
1182
1079
1041
1040
1044
1054
1078
1165
1185
1201
1230
1214
1221
1223
1291
1491
1744
1963
2086
2061
1936
1735
1584
1458
1367
1289
1211
1130
1037
983
961
980
1042
1152
1171
1161
1139
1117
1015
1008
1008
1023
1050
1110
1109
1157
1158
1182
1200
1207
1194
1221
1383
1627
1902
2069
2109
2014
1850
1669
1521
1407
1331
1274
1191
1114
1023
996
1010
1056
1161
1193
1195
1180
1161
1078
1023
1006
1023
1054
1067
1141
1163
1193
1178
1215
1200
1201
1205
1234
1374
1593
1853
1985
2010
1939
1728
1585
1470
1402
1319
1247
1156
1088
1056
1015
1038
1088
1190
1207
1198
1189
1090
1054
1040
1008
1034
1040
1114
1162
1163
1164
1159
1168
1177
1245
1395
1648
1892
1981
1968
1856
1687
1534
1405
1328
1258
1197
1097
1008
973
992
1055
1168
1211
1229
1194
1159
1065
1023
1023
1040
1040
1037
1071
1145
1177
1189
1170
1177
1183
1214
1357
1616
1868
2029
2066
1982
1797
1632
1506
1411
1331
1281
1221
1101
1007
985
993
1052
1136
1205
1204
1181
1143
1151
1088
1038
1033
1072
1065
1070
1184
1210
1210
1216
1231
1230
1235
1234
1302
1466
1757
2002
2083
2022
1904
1725
1564
1469
1333
1273
1218
1157
1051
989
944
976
1037
1136
1136
1135
1131
1123
1040
976
975
1034
1106
1093
1115
1163
1184
1159
1183
1215
1206
1197
1246
1360
1595
1859
2021
2047
1929
1753
1600
1461
1342
1267
1217
1134
1050
1007
1017
1042
1136
1234
1259
1238
1197
1118
1067
1040
1023
1040
1051
1054
1051
1136
1153
1142
1147
1199
1312
1535
1799
1967
1984
1909
1762
1581
1439
1337
1286
1215
1150
1055
1019
1008
1046
1127
1216
1195
1199
1167
1082
1015
1010
1022
1056
1045
1120
1143
1162
1168
1184
1170
1184
1250
1442
1707
1904
2014
2000
1872
1690
1535
1438
1347
1280
1220
1153
1056
985
975
983
1047
1138
1168
1158
1134
1106
1023
1005
993
998
1015
1101
1136
1147
1179
1193
1182
1197
1211
1254
1396
1639
1908
2064
2041
1950
1785
1619
1499
1391
1307
1264
1188
1122
1019
983
976
1007
1051
1131
1151
1141
1094
1012
991
992
995
1006
1023
1088
1120
1136
1131
1147
1155
1179
1195
1193
1285
1494
1765
1959
2031
1963
1837
1639
1505
1388
1303
1235
1179
1104
1023
977
994
1040
1133
1168
1202
1173
1138
1038
1020
1018
1018
1040
1087
1120
1126
1136
1158
1167
1174
1197
1325
1526
1795
1948
1997
1873
1699
1535
1414
1300
1236
1168
1107
1023
963
959
1021
1116
1197
1210
1175
1149
1091
1035
1016
1023
1022
1040
1123
1155
1180
1168
1192
1214
1211
1264
1456
1717
1947
2097
2070
1953
1756
1573
1448
1337
1243
1189
1109
1012
947
929
974
1031
1135
1163
1156
1122
1100
1008
1007
1003
1014
1023
1072
1105
1134
1151
1177
1189
1185
1200
1226
1334
1535
1819
2047
2130
2087
1930
1739
1561
1453
1359
1263
1200
1115
1008
911
795
656
734
831
1009
1023
1066
1073
850
864
910
1051
1125
1187
1225
1254
1282
1330
1375
1402
1437
1442
1446
1469
1625
1858
2058
2139
2090
1968
1785
1595
1451
1319
1220
1152
1072
1003
935
935
949
1008
1087
1104
1097
1085
1064
975
955
929
927
947
1005
1071
1105
1133
1173
1215
1232
1251
1344
1535
1778
1906
1923
1815
1629
1468
1310
1199
1134
1073
970
930
901
911
977
1091
1141
1167
1141
1117
1085
1014
987
981
994
1017
1081
1117
1110
1138
1139
1151
1167
1246
1438
1670
1936
2032
2000
1891
1696
1554
1433
1343
1273
1202
1121
1053
989
970
1008
1065
1161
1167
1159
1134
1081
1023
999
1002
1021
1023
1014
1147
1158
1149
1162
1162
1168
1184
1247
1426
1686
1872
2000
1981
1854
1644
1488
1375
1307
1245
1175
1097
1023
923
944
953
1013
1089
1119
1124
1085
1006
986
989
991
1008
1001
1022
1086
1102
1115
1131
1125
1138
1153
1157
1191
1333
1591
1857
2035
2071
1985
1798
1604
1456
1353
1278
1209
1139
1058
1005
982
1040
1118
1179
1191
1187
1159
1099
1051
1042
1010
989
988
1064
1136
1130
1107
1127
1123
1137
1223
1413
1650
1822
1877
1822
1678
1493
1337
1239
1170
1115
1057
988
964
966
1017
1141
1170
1173
1163
1155
1054
1041
1006
1005
997
1008
1085
1122
1159
1143
1107
1114
1158
1317
1579
1797
1927
1950
1840
1644
1525
1385
1286
1223
1166
1103
1022
977
961
998
1040
1149
1174
1167
1139
1114
1037
1007
991
1023
1022
1041
1106
1115
1136
1125
1127
1136
1145
1229
1454
1705
1895
1968
1917
1790
1593
1446
1322
1235
1183
1121
1051
985
944
926
977
1059
1123
1145
1136
1114
1091
1045
995
976
983
1003
1066
1110
1125
1139
1151
1182
1173
1193
1203
1296
1495
1743
1904
1969
1875
1712
1522
1391
1300
1222
1139
1086
1014
965
965
994
1061
1155
1193
1198
1171
1133
1081
1047
1057
1061
1073
1075
1120
1147
1151
1148
1168
1181
1321
1533
1772
1863
1868
1750
1579
1419
1300
1206
1136
1090
1005
957
949
963
1013
1136
1173
1201
1195
1162
1091
1043
1033
1037
1039
1051
1115
1138
1171
1165
1168
1179
1216
1368
1584
1808
1936
1942
1841
1682
1518
1378
1274
1200
1166
1094
1019
979
957
992
1035
1134
1161
1173
1171
1154
1107
1046
1040
1058
1062
1088
1139
1163
1167
1168
1179
1180
1176
1232
1373
1603
1803
1915
1887
1762
1587
1428
1310
1217
1147
1103
1040
982
943
936
972
999
1095
1104
1106
1097
1070
979
925
903
887
910
938
963
1017
1051
1086
1095
1104
1118
1171
1263
1490
1718
1875
1937
1875
1747
1580
1435
1331
1254
1214
1138
1082
1001
976
990
1051
1146
1178
1168
1132
1061
1042
1038
1023
1038
1021
1056
1102
1143
1142
1136
1152
1177
1303
1506
1719
1840
1855
1786
1616
1457
1347
1248
1179
1145
1050
994
971
983
1040
1147
1178
1197
1155
1130
1073
1039
1040
1023
1040
1063
1115
1129
1152
1136
1139
1158
1194
1339
1575
1790
1895
1869
1780
1616
1463
1353
1278
1225
1158
1085
1008
973
946
970
1040
1136
1141
1135
1117
1072
1018
992
995
1018
1040
1088
1107
1115
1135
1140
1132
1146
1207
1364
1611
1823
1944
1923
1834
1645
1523
1405
1300
1239
1200
1130
1054
982
960
975
1005
1091
1107
1111
1083
1067
1055
977
994
997
1005
1021
1075
1085
1109
1110
1122
1129
1164
1263
1457
1695
1827
1856
1788
1639
1488
1376
1296
1228
1172
1115
1041
971
949
980
1008
1088
1131
1118
1111
1101
1083
1023
992
994
1008
1062
1086
1106
1098
1108
1116
1168
1328
1520
1705
1763
1715
1617
1466
1346
1263
1200
1168
1087
1011
981
957
976
1023
1114
1122
1132
1103
1087
1040
991
1008
1023
1023
1073
1103
1110
1110
1117
1134
1137
1202
1365
1584
1744
1806
1754
1664
1494
1397
1296
1237
1175
1136
1061
980
954
959
1004
1070
1097
1104
1088
1072
1058
1035
979
976
978
999
1023
1070
1097
1109
1118
1136
1125
1153
1232
1397
1607
1760
1811
1743
1664
1535
1414
1331
1264
1200
1159
1075
1008
959
963
987
1039
1098
1104
1087
1079
1055
1062
1034
1023
1038
1043
1039
1056
1070
1103
1104
1129
1122
1125
1152
1164
1237
1412
1622
1762
1809
1757
1653
1509
1389
1300
1244
1190
1136
1071
992
983
994
1008
1082
1120
1134
1095
1090
1042
1008
995
1007
1005
1019
1086
1104
1097
1104
1109
1133
1175
1306
1494
1669
1744
1729
1634
1488
1366
1280
1209
1171
1127
1045
1008
1013
1040
1077
1145
1168
1178
1161
1130
1093
1068
1040
1066
1062
1058
1088
1109
1120
1124
1118
1120
1201
1346
1535
1680
1728
1674
1570
1439
1317
1243
1194
1126
1056
989
957
926
945
989
1061
1088
1089
1073
1072
1053
1037
1011
1009
1018
1042
1054
1062
1065
1069
1088
1117
1217
1419
1594
1714
1727
1664
1535
1431
1335
1255
1199
1145
1104
1047
982
962
986
1014
1091
1119
1103
1088
1062
1008
1008
991
991
1019
1054
1080
1073
1081
1097
1113
1239
1427
1587
1678
1675
1601
1487
1367
1279
1222
1183
1120
1072
1018
985
965
997
1042
1100
1111
1130
1095
1081
1065
1009
1010
1007
1013
1053
1088
1103
1098
1100
1107
1157
1278
1459
1631
1722
1702
1625
1487
1387
1311
1249
1190
1122
1084
1019
979
975
995
1041
1094
1105
1106
1088
1077
1063
1056
1050
1034
1040
1051
1072
1072
1086
1088
1109
1135
1203
1376
1575
1699
1729
1683
1584
1456
1344
1271
1200
1174
1117
1059
994
986
1003
1040
1120
1141
1124
1119
1091
1079
1035
1013
1015
1033
1045
1075
1095
1090
1115
1107
1168
1296
1488
1650
1712
1680
1611
1479
1367
1296
1241
1173
1109
1053
993
979
1008
1051
1129
1149
1136
1125
1087
1034
1040
1040
1053
1035
1063
1094
1120
1104
1105
1138
1249
1442
1606
1711
1703
1632
1489
1375
1291
1232
1177
1117
1068
991
959
977
1003
1074
1123
1120
1105
1088
1073
1058
1008
1005
1023
1033
1079
1088
1093
1109
1093
1100
1154
1296
1490
1658
1750
1712
1626
1495
1404
1329
1253
1203
1138
1083
1005
976
975
982
1023
1088
1108
1096
1079
1069
1040
995
986
1007
1008
1046
1088
1085
1102
1103
1104
1111
1127
1215
1397
1630
1761
1804
1759
1642
1507
1392
1325
1231
1185
1143
1057
999
970
976
1022
1104
1117
1139
1121
1102
1072
975
997
991
1008
991
1014
1011
1066
1086
1086
1099
1106
1121
1129
1137
1175
1297
1510
1729
1866
1879
1785
1639
1488
1365
1271
1202
1136
1067
994
951
951
962
1008
1079
1120
1113
1104
1078
1056
1015
993
1002
997
1021
1038
1077
1089
1105
1130
1125
1147
1141
1145
1152
1184
1325
1521
1730
1808
1790
1679
1556
1375
1264
1170
1119
1062
1008
943
907
961
1061
1057
1105
1162
1123
1040
1051
1054
995
973
997
1043
1011
1036
1104
1102
1067
1088
1142
1198
1340
1535
1710
1733
1685
1583
1424
1289
1190
1139
1050
1004
950
938
939
951
1040
1104
1110
1107
1104
1083
1040
1003
993
998
983
985
1006
1010
1072
1069
1079
1083
1087
1115
1137
1226
1409
1622
1744
1763
1698
1535
1413
1276
1203
1134
1077
1013
965
926
915
922
979
1055
1072
1079
1090
1058
1037
991
995
970
959
978
989
999
1052
1056
1072
1072
1088
1114
1121
1115
1132
1137
1214
1392
1616
1776
1812
1747
1630
1472
1337
1226
1146
1086
1043
992
936
909
909
950
1013
1057
1075
1070
1059
1035
1023
1023
1022
1002
1003
1023
1037
1040
1060
1070
1085
1094
1111
1117
1134
1136
1152
1152
1157
1246
1438
1647
1762
1795
1730
1586
1431
1296
1201
1116
1058
1020
960
928
911
926
969
1046
1071
1104
1097
1062
1056
1033
985
988
976
992
1009
1051
1066
1075
1094
1104
1116
1118
1130
1117
1171
1273
1462
1639
1744
1744
1653
1514
1383
1250
1166
1087
1045
981
954
923
950
995
1085
1135
1153
1134
1119
1074
1034
1013
1005
1008
1009
1013
1077
1072
1086
1099
1099
1107
1159
1280
1471
1654
1737
1725
1648
1485
1351
1242
1168
1088
1047
1005
949
944
941
986
1066
1104
1192
1104
1090
1062
1017
987
992
1008
1009
1015
1058
1077
1084
1107
1104
1133
1132
1146
1217
1390
1606
1763
1815
1777
1650
1483
1369
1258
1187
1119
1084
1003
976
913
923
950
1044
1069
1084
1084
1075
1068
1039
1023
1010
1080
1123
1073
1023
982
943
907
912
925
965
989
1013
1012
1007
1007
986
981
976
995
991
981
1014
1008
1023
1023
1061
1072
1072
1075
1099
1147
1258
1376
1463
1463
1413
1319
1275
1194
1145
1083
1056
1008
976
960
947
973
991
1019
1043
1042
1045
1018
1011
986
979
978
971
977
982
997
998
992
1007
1019
1075
1170
1298
1390
1420
1392
1325
1257
1197
1123
1086
1040
999
976
974
958
978
1045
1045
1059
1057
1060
1039
1015
1008
993
990
991
997
999
1022
1040
1040
1038
1045
1070
1104
1184
1302
1391
1434
1424
1363
1281
1219
1154
1114
1073
1023
1001
976
955
962
960
991
1008
1023
1023
1017
1006
995
992
987
987
1003
1007
1008
1019
1019
1038
1066
1042
1057
1074
1121
1202
1311
1391
1439
1424
1359
1282
1235
1168
1139
1098
1074
1058
1007
982
976
994
1005
1009
1018
1013
1018
998
1005
1001
980
997
981
990
999
1021
1035
1023
1040
1060
1069
1062
1072
1072
1088
1153
1248
1346
1443
1457
1424
1363
1252
1214
1152
1106
1072
1040
1014
968
969
973
1004
1035
1049
1056
1050
1023
1019
1011
1004
995
991
986
1005
1037
1013
1023
1039
1055
1043
1053
1076
1139
1243
1335
1410
1421
1399
1306
1245
1191
1127
1082
1063
1008
975
967
976
1003
1038
1057
1040
1057
1041
1034
1022
1007
1010
993
994
1002
1008
1023
1034
1058
1045
1057
1071
1107
1197
1302
1419
1482
1467
1392
1299
1234
1169
1123
1070
1040
991
972
939
929
960
981
1008
1008
1023
1009
1008
1007
997
982
997
998
999
1017
1018
1044
1043
1062
1072
1075
1090
1077
1118
1200
1328
1456
1523
1509
1439
1331
1250
1168
1105
1072
1022
989
950
928
912
935
962
989
978
1003
999
995
981
987
977
976
989
995
994
1002
1008
1023
1052
1071
1079
1103
1120
1125
1156
1232
1345
1440
1520
1509
1469
1349
1267
1184
1127
1089
1055
1040
976
967
955
983
1013
1022
1040
1040
1034
1020
1007
995
999
990
998
1019
1037
1043
1042
1055
1062
1072
1088
1104
1137
1209
1328
1430
1487
1465
1382
1294
1221
1159
1121
1075
1039
987
959
965
974
982
1017
1019
1013
1022
993
1002
996
989
1022
1054
1048
1022
1067
1078
1097
1099
1109
1123
1177
1297
1422
1502
1495
1424
1323
1232
1169
1098
1036
981
938
944
932
941
949
1012
1019
1043
1070
1072
1019
1023
1040
1047
1036
1023
1043
1040
1074
1076
1047
1064
1071
1085
1090
1140
1232
1380
1487
1526
1526
1443
1354
1244
1217
1159
1117
1091
1059
1008
1006
1009
1023
1050
1072
1089
1086
1082
1062
1062
1040
1043
1040
1036
1049
1038
1067
1075
1067
1082
1093
1104
1103
1090
1116
1203
1311
1440
1520
1525
1457
1360
1299
1209
1155
1108
1102
1045
999
971
959
971
976
1007
1040
1034
1038
1015
1007
997
985
989
979
997
1001
1017
1035
1057
1057
1064
1069
1086
1086
1090
1104
1184
1314
1418
1471
1463
1410
1310
1234
1168
1110
1079
1049
999
987
961
961
1007
1040
1053
1056
1072
1077
1047
1046
1021
1008
1013
1054
1039
1022
1049
1049
1085
1099
1102
1077
1115
1200
1319
1440
1477
1435
1356
1269
1219
1150
1090
1072
1040
1013
974
977
1006
1061
1079
1098
1101
1086
1070
1065
1043
1049
1040
1042
1034
1037
1056
1055
1067
1076
1079
1088
1090
1125
1200
1326
1431
1518
1521
1454
1370
1283
1201
1162
1113
1088
1063
1013
1002
980
997
1019
1057
1066
1090
1093
1072
1061
1045
1042
1034
1017
1014
1040
1037
1059
1072
1088
1077
1097
1099
1115
1115
1124
1183
1291
1418
1510
1531
1485
1381
1296
1210
1161
1127
1072
1071
1020
975
977
976
983
1054
1070
1065
1076
1061
1051
1067
1061
1047
1035
1040
1063
1060
1060
1083
1079
1105
1102
1115
1127
1125
1146
1232
1330
1456
1520
1527
1472
1353
1267
1207
1149
1104
1068
1042
997
976
981
997
1023
1072
1083
1102
1072
1073
1049
1052
1037
1037
1039
1023
1054
1055
1075
1102
1106
1103
1137
1191
1307
1434
1507
1511
1467
1360
1265
1200
1144
1109
1075
1050
1004
986
1003
1039
1089
1094
1104
1120
1094
1089
1080
1068
1061
1069
1070
1061
1095
1099
1105
1102
1104
1120
1133
1149
1247
1373
1491
1535
1559
1488
1373
1296
1225
1181
1136
1115
1074
1041
992
997
1020
1053
1088
1104
1103
1100
1088
1065
1059
1047
1040
1042
1061
1049
1060
1074
1087
1090
1098
1116
1133
1142
1184
1293
1421
1521
1560
1505
1434
1358
1274
1218
1161
1110
1101
1074
1040
994
1003
1037
1066
1086
1089
1079
1085
1072
1050
1038
1045
1031
1040
1051
1067
1074
1087
1094
1105
1121
1129
1113
1124
1142
1193
1283
1407
1517
1556
1532
1454
1360
1286
1216
1167
1136
1102
1072
1015
1008
1005
1030
1051
1089
1106
1094
1075
1049
1049
1041
1041
1038
1033
1042
1053
1061
1067
1087
1083
1101
1111
1109
1200
1327
1445
1518
1491
1439
1345
1277
1200
1143
1104
1065
1046
997
993
999
1059
1088
1119
1111
1105
1102
1079
1070
1045
1043
1054
1065
1059
1073
1075
1091
1095
1105
1099
1101
1151
1254
1382
1500
1535
1520
1438
1353
1257
1194
1139
1107
1074
1051
991
977
989
1022
1058
1086
1088
1072
1072
1072
1054
1040
1036
1043
1043
1023
1051
1043
1069
1072
1087
1087
1104
1107
1109
1145
1259
1394
1491
1521
1495
1424
1328
1259
1184
1131
1081
1056
1023
976
960
940
973
998
1034
1057
1061
1062
1040
1035
1022
1005
1011
1015
1018
1020
1052
1066
1078
1097
1089
1089
1095
1115
1167
1265
1394
1503
1535
1513
1440
1345
1251
1187
1136
1109
1074
1033
1005
989
1006
1023
1079
1093
1104
1089
1089
1073
1057
1041
1021
1041
1040
1043
1053
1040
1066
1084
1077
1088
1143
1267
1391
1489
1491
1444
1347
1275
1214
1159
1117
1072
1051
1001
978
986
1021
1075
1106
1103
1104
1088
1084
1065
1063
1047
1051
1059
1071
1083
1072
1087
1102
1104
1113
1127
1198
1330
1469
1531
1535
1498
1394
1297
1231
1187
1137
1106
1065
1036
1003
978
1004
1023
1075
1089
1087
1085
1066
1071
1056
1040
1035
1021
1046
1023
1042
1066
1067
1087
1082
1094
1088
1104
1152
1275
1419
1535
1567
1524
1454
1360
1306
1221
1173
1136
1107
1056
995
976
980
984
1007
1070
1075
1075
1071
1056
1045
1046
1023
1043
1040
1042
1072
1054
1071
1061
1089
1089
1099
1100
1113
1098
1121
1203
1318
1462
1535
1557
1508
1397
1325
1264
1207
1166
1143
1097
1058
1013
998
1011
1042
1056
1079
1089
1093
1089
1072
1061
1066
1045
1044
1049
1063
1084
1075
1090
1101
1099
1121
1123
1115
1119
1148
1229
1353
1459
1531
1535
1463
1354
1278
1219
1163
1133
1090
1045
1015
992
1012
1056
1092
1103
1126
1101
1101
1072
1060
1052
1023
1040
1043
1058
1051
1063
1077
1074
1089
1089
1136
1220
1355
1485
1509
1475
1424
1326
1267
1205
1165
1123
1094
1058
1010
986
1008
1041
1090
1105
1104
1085
1086
1070
1063
1056
1040
1040
1049
1047
1042
1074
1082
1091
1097
1089
1107
1104
1174
1300
1443
1535
1557
1520
1444
1343
1279
1220
1172
1147
1106
1057
1014
1006
991
976
1043
1074
1073
1077
1077
1040
1053
1047
1023
1015
1022
1034
1034
1043
1066
1073
1088
1106
1095
1109
1120
1197
1319
1440
1535
1535
1490
1404
1333
1271
1209
1175
1130
1091
1040
991
987
982
1003
1023
1059
1071
1055
1049
1031
1009
1033
995
1008
1005
1008
1040
1042
1051
1072
1077
1088
1091
1097
1137
1218
1341
1456
1530
1518
1456
1376
1298
1241
1201
1144
1104
1072
1035
1009
981
1010
1042
1072
1072
1073
1058
1051
1041
1039
1040
1015
1014
1033
1062
1057
1063
1072
1072
1083
1117
1200
1332
1445
1501
1462
1403
1315
1249
1210
1163
1105
1072
1038
1008
985
999
1040
1071
1088
1091
1071
1063
1054
1034
1023
1031
1021
1023
1034
1051
1056
1083
1083
1088
1079
1108
1181
1318
1441
1522
1527
1485
1383
1323
1258
1205
1155
1124
1089
1045
994
990
990
1013
1063
1061
1065
1058
1061
1043
1040
1020
1019
1023
1009
1035
1018
1053
1055
1062
1067
1073
1090
1088
1127
1221
1350
1478
1535
1525
1467
1382
1307
1242
1199
1162
1104
1072
1042
983
961
977
1008
1053
1059
1067
1051
1056
1043
1023
1020
1022
1002
1001
1023
1016
1023
1046
1057
1077
1078
1084
1089
1090
1099
1154
1293
1437
1523
1567
1505
1446
1346
1292
1232
1184
1145
1109
1056
1019
1006
995
1012
1042
1071
1072
1079
1057
1038
1034
1020
1006
1023
1015
1034
1034
1057
1062
1069
1087
1090
1082
1092
1110
1137
1229
1360
1467
1511
1491
1438
1332
1267
1221
1166
1124
1092
1040
1004
994
1010
1039
1084
1087
1091
1092
1065
1054
1047
1034
1039
1041
1036
1023
1047
1049
1055
1073
1072
1088
1088
1137
1254
1393
1482
1511
1489
1415
1331
1263
1195
1143
1103
1076
1038
1002
973
990
1023
1072
1091
1093
1083
1072
1052
1023
1023
1023
1023
1023
1011
1041
1040
1062
1072
1084
1085
1088
1103
1107
1112
1120
1185
1297
1451
1535
1561
1529
1439
1344
1281
1213
1167
1127
1093
1042
995
980
983
996
1023
1059
1046
1066
1045
1023
1019
1010
1009
1002
1005
1008
1010
1039
1023
1051
1062
1078
1088
1094
1097
1097
1095
1120
1216
1360
1488
1559
1535
1479
1389
1316
1247
1191
1147
1108
1077
1010
978
973
971
986
1007
1040
1040
1023
1037
1007
1008
993
991
1003
1013
1007
1034
1040
1061
1065
1082
1081
1094
1098
1090
1136
1133
1212
1329
1498
1535
1535
1475
1374
1290
1242
1179
1142
1091
1054
1040
999
995
1008
1040
1072
1091
1073
1072
1045
1035
1034
1021
1022
1033
1038
1041
1058
1072
1087
1079
1092
1104
1097
1131
1233
1366
1459
1524
1488
1424
1316
1261
1200
1125
1113
1073
1023
977
978
1035
1046
1074
1115
1104
1084
1073
1063
1055
1010
1020
1014
1023
1022
1045
1069
1072
1079
1083
1103
1103
1105
1166
1289
1435
1520
1535
1488
1424
1328
1250
1195
1138
1104
1079
1035
1001
995
991
1016
1073
1089
1088
1084
1045
1040
1040
1019
1008
1009
1007
1022
1038
1041
1054
1058
1071
1103
1090
1111
1115
1136
1222
1362
1477
1535
1535
1482
1392
1326
1262
1211
1158
1116
1075
1023
993
976
995
1018
1040
1050
1059
1068
1040
1040
1018
1009
990
997
998
1009
1011
1058
1055
1069
1063
1080
1094
1106
1105
1109
1135
1230
1366
1502
1565
1531
1479
1383
1302
1235
1196
1161
1104
1072
1015
991
986
998
1011
1064
1071
1065
1062
1051
1035
1022
1023
1037
1017
1022
1042
1040
1050
1057
1069
1074
1088
1091
1119
1214
1324
1442
1509
1490
1423
1318
1259
1200
1146
1120
1083
1009
1003
971
1009
1069
1069
1072
1078
1056
1043
1040
1043
1020
1040
1023
1021
1046
1072
1071
1086
1087
1098
1167
1262
1394
1482
1483
1442
1339
1276
1230
1153
1135
1089
1040
1005
979
971
1008
1057
1075
1088
1079
1069
1070
1051
1089
1070
1010
976
965
993
1018
1050
1061
1075
1059
1045
1041
1019
1009
1008
1010
999
981
1021
1023
1049
1058
1110
1217
1329
1420
1429
1401
1335
1257
1186
1147
1097
1072
1019
1008
965
977
983
1011
1049
1059
1062
1046
1040
1019
1033
1017
1005
1015
1010
1038
1036
1042
1045
1055
1072
1153
1274
1395
1467
1482
1436
1342
1270
1214
1168
1121
1088
1051
1008
965
966
982
992
1043
1023
1023
1039
1038
1015
1007
994
998
1008
1002
1014
1023
1045
1053
1053
1071
1077
1111
1215
1334
1438
1487
1469
1401
1328
1259
1187
1137
1115
1072
1043
995
975
973
980
1008
1040
1043
1040
1037
1023
993
1017
976
999
993
1008
1008
1036
1040
1047
1061
1073
1078
1087
1088
1133
1221
1351
1452
1499
1478
1423
1334
1253
1202
1146
1107
1078
1023
987
957
964
978
1023
1039
1053
1051
1040
1044
1039
1015
1005
1011
1013
1019
1034
1031
1040
1046
1062
1119
1221
1354
1430
1433
1403
1296
1245
1193
1133
1104
1057
1005
985
976
971
1013
1055
1071
1072
1072
1056
1045
1042
1023
1018
999
1005
1008
1020
1039
1058
1061
1067
1076
1147
1253
1383
1463
1474
1423
1327
1263
1200
1145
1091
1063
1034
977
969
955
961
999
1010
1039
1042
1019
1019
1003
982
994
994
989
994
1011
1038
1045
1054
1051
1062
1061
1081
1135
1253
1374
1461
1495
1451
1395
1298
1237
1175
1136
1077
1050
1010
976
946
960
976
989
1036
1009
1008
1008
1008
986
991
1003
986
1002
1004
1012
998
983
1040
1023
1045
1071
1111
1200
1323
1423
1473
1457
1391
1306
1241
1189
1147
1121
1075
1035
1017
999
1003
1021
1074
1071
1072
1070
1072
1047
1043
1023
1023
1012
1023
1040
1047
1051
1056
1057
1103
1169
1295
1406
1459
1456
1387
1316
1258
1207
1149
1105
1075
1023
1008
1007
1010
1044
1074
1095
1102
1088
1074
1070
1051
1040
1040
1022
1040
1051
1053
1057
1053
1078
1161
1295
1392
1458
1462
1424
1325
1280
1215
1152
1126
1075
1040
989
978
977
1002
1020
1049
1063
1050
1046
1043
1019
1015
1005
1008
1006
1021
1019
1023
1040
1055
1051
1116
1214
1347
1434
1470
1435
1357
1296
1232
1166
1130
1093
1044
1003
964
949
955
974
1040
1037
1045
1040
1040
1009
1005
1002
1003
985
986
988
1008
1023
1039
1041
1011
1061
1107
1222
1355
1426
1455
1415
1333
1270
1199
1171
1106
1088
1047
1008
990
966
975
1001
1040
1046
1056
1051
1050
1014
1008
1014
1012
1012
1003
1020
1023
1038
1023
1053
1104
1202
1312
1399
1394
1357
1264
1220
1166
1109
1070
1041
979
963
959
967
1003
1034
1049
1072
1058
1057
1038
1023
1013
1014
999
1015
1019
1011
1013
1019
1051
1132
1235
1339
1392
1392
1335
1261
1211
1155
1103
1058
1018
997
966
938
962
983
1007
1013
1023
1049
1040
1037
1034
1015
1009
1023
1015
1035
1035
1039
1047
1072
1089
1168
1279
1401
1446
1446
1392
1311
1238
1168
1125
1084
1042
1005
965
944
944
951
973
989
1010
1002
1002
997
995
983
990
983
999
1005
1004
1011
1037
1046
1055
1059
1067
1096
1167
1278
1391
1446
1453
1392
1306
1238
1173
1136
1085
1050
1008
990
953
946
946
970
1013
1008
1033
1035
1034
1023
1017
1021
1009
1021
1021
1039
1035
1047
1074
1073
1073
1090
1123
1203
1327
1423
1500
1483
1412
1327
1240
1175
1107
1067
1049
1001
959
938
933
944
955
995
1008
1008
997
993
1003
995
999
1008
1008
1023
1001
1008
1012
1017
1069
1168
1263
1344
1358
1323
1260
1190
1131
1089
1049
1023
986
979
981
1001
1067
1088
1127
1136
1145
1129
1107
1097
1072
1083
1089
1097
1127
1115
1136
1130
1136
1168
1233
1343
1440
1443
1416
1360
1268
1211
1161
1114
1087
1022
995
951
932
945
973
992
1019
1023
1015
999
1008
1013
1008
1008
1002
1019
1037
1053
1083
1106
1104
1104
1155
1232
1355
1454
1503
1473
1395
1313
1245
1177
1139
1097
1083
1023
989
976
972
988
1007
1055
1074
1071
1066
1050
1057
1022
1014
1040
1047
1050
1049
1059
1073
1077
1091
1099
1136
1176
1267
1400
1473
1473
1449
1367
1287
1227
1171
1119
1090
1056
1008
977
971
983
1039
1073
1076
1086
1086
1083
1072
1069
1054
1047
1038
1040
1049
1050
1066
1074
1107
1171
1303
1399
1456
1431
1392
1303
1235
1168
1133
1087
1055
1008
991
978
997
1035
1074
1088
1078
1073
1072
1063
1043
1040
1034
1043
1055
1047
1062
1076
1072
1091
1151
1264
1387
1455
1472
1427
1361
1294
1245
1194
1136
1103
1082
1023
1011
1009
1023
1043
1072
1088
1083
1074
1063
1051
1039
1047
1042
1035
1070
1070
1082
1072
1075
1079
1104
1166
1241
1392
1482
1488
1440
1341
1284
1239
1201
1160
1119
1081
1030
987
972
990
1005
1067
1069
1072
1072
1061
1067
1059
1054
1040
1040
1053
1054
1053
1069
1089
1088
1104
1104
1123
1154
1245
1378
1483
1510
1493
1427
1351
1273
1205
1166
1129
1082
1045
1015
983
1006
1001
1037
1072
1081
1089
1076
1054
1058
1044
1040
1035
1038
1019
1039
1047
1056
1059
1075
1073
1111
1211
1328
1435
1459
1447
1377
1285
1225
1166
1131
1088
1059
1017
998
990
998
1019
1067
1077
1072
1093
1066
1043
1037
1035
1055
1023
1040
1040
1023
1023
1043
1050
1091
1197
1319
1393
1398
1362
1265
1215
1162
1116
1103
1065
1040
1003
990
991
996
1043
1056
1054
1053
1045
1038
1023
1009
1012
1018
1057
1067
1079
1098
1084
1084
1120
1131
1242
1348
1419
1453
1414
1339
1259
1167
1123
1093
1067
1012
1001
951
958
970
990
1036
1041
1045
1058
1051
1041
1018
1018
1033
1011
1023
1034
1034
1060
1047
1063
1094
1097
1077
1123
1211
1333
1422
1459
1435
1386
1296
1231
1179
1110
1077
1053
1023
989
971
979
997
1018
1053
1069
1072
1056
1048
1047
1008
1034
1006
997
1003
1023
1047
1054
1040
1059
1071
1085
1150
1245
1358
1419
1435
1397
1297
1228
1168
1136
1095
1059
1035
992
981
958
976
1014
1041
1062
1073
1080
1061
1059
1067
1061
1054
1045
1058
1055
1057
1085
1099
1088
1113
1131
1197
1294
1398
1482
1470
1414
1312
1241
1185
1133
1105
1072
1023
994
990
981
1008
1051
1073
1073
1072
1069
1059
1039
1021
1021
1035
1008
1018
1031
1041
1042
1056
1098
1153
1261
1361
1414
1399
1344
1262
1199
1139
1103
1061
1045
1003
976
977
1005
1013
1072
1081
1072
1085
1072
1058
1049
1054
1045
1063
1074
1073
1093
1104
1089
1120
1118
1158
1232
1360
1453
1499
1453
1405
1283
1206
1147
1088
1040
991
987
951
953
939
955
1038
1049
1049
1058
1058
1053
1065
1058
1063
1059
1068
1044
1072
1071
1077
1095
1104
1125
1156
1244
1370
1456
1494
1472
1402
1307
1221
1167
1120
1069
1050
987
973
971
962
973
1038
1051
1067
1069
1052
1040
1034
1015
1043
1035
1058
1089
1134
1152
1181
1184
1198
1210
1250
1355
1431
1511
1503
1442
1375
1248
1168
1109
1045
993
976
947
922
954
1056
1088
1104
1137
1165
1141
1073
1047
1048
1061
1054
1113
1123
1119
1125
1101
1086
1095
1189
1319
1455
1494
1485
1437
1362
1274
1264
1207
1099
1014
957
947
962
973
1046
1095
1091
1110
1102
1079
1072
1037
1040
1021
1016
1008
1017
1021
1075
1103
1168
1271
1410
1501
1517
1480
1402
1310
1235
1187
1143
1122
1084
1059
1040
1012
1023
1070
1117
1134
1136
1116
1104
1083
1071
1054
1059
1067
1070
1075
1074
1084
1081
1134
1213
1317
1427
1494
1479
1415
1330
1269
1212
1185
1141
1105
1058
1005
985
977
1003
1022
1070
1088
1104
1097
1078
1053
1063
1070
1065
1050
1060
1071
1067
1079
1085
1090
1152
1265
1407
1488
1521
1487
1416
1333
1280
1216
1161
1117
1075
1021
977
955
960
990
1056
1078
1099
1095
1080
1052
1034
1011
1008
1008
1019
1037
1042
1048
1073
1091
1094
1134
1206
1324
1424
1498
1514
1472
1407
1317
1250
1211
1163
1121
1077
1061
1042
1046
1034
1117
1117
1113
1147
1110
1072
1072
1042
1037
1034
1037
1053
1072
1069
1101
1089
1110
1118
1143
1202
1323
1456
1505
1506
1472
1381
1315
1249
1190
1163
1117
1057
1008
965
939
951
993
1040
1064
1089
1095
1067
1056
1046
1039
994
997
1019
1021
1023
1062
1061
1117
1200
1343
1471
1493
1475
1424
1323
1233
1161
1111
1075
1032
983
984
987
1013
1071
1114
1162
1174
1165
1143
1071
1074
1062
1061
1045
1063
1043
1049
1072
1060
1103
1188
1287
1393
1440
1440
1358
1296
1206
1147
1090
1037
987
929
916
893
906
919
989
991
995
1017
1040
1035
1038
1021
1014
1008
1008
1008
1015
1023
1041
1094
1099
1103
1183
1325
1458
1569
1617
1530
1423
1324
1243
1193
1122
1069
1023
966
902
878
873
912
991
1034
1059
1051
1019
999
985
982
991
956
945
975
1013
1075
1125
1135
1115
1114
1126
1207
1328
1453
1488
1486
1451
1409
1323
1234
1215
1189
1157
1108
1039
986
978
1003
1040
1057
1041
1023
995
995
1023
1009
995
993
1021
1050
1070
1072
1092
1075
1079
1056
1056
1061
1136
1227
1354
1473
1490
1427
1389
1303
1232
1184
1110
1070
1023
986
967
949
957
988
1044
1072
1085
1093
1078
1066
1065
1034
1039
1023
1009
1019
1020
1031
1013
1069
1143
1266
1397
1424
1391
1341
1250
1200
1139
1088
1034
985
930
930
947
946
976
1002
1023
1007
993
981
979
1003
987
985
970
978
983
1003
1010
1023
1075
1181
1296
1392
1431
1391
1331
1239
1200
1113
1069
1023
989
963
931
934
951
967
1009
1015
1040
1022
1009
982
988
961
948
965
970
1008
1010
1034
1065
1088
1136
1237
1363
1456
1495
1477
1419
1334
1265
1200
1127
1089
1075
1041
993
957
966
988
1008
1041
1039
1041
1040
1019
1020
997
991
999
1005
1018
1047
1037
1056
1058
1073
1077
1111
1220
1346
1431
1489
1465
1398
1312
1237
1183
1119
1086
1023
993
957
951
944
976
1023
1035
1056
1060
1062
1040
1041
1043
1039
1022
1008
1015
1038
1047
1062
1071
1099
1101
1091
1136
1238
1370
1469
1512
1493
1431
1345
1286
1200
1136
1089
1057
1035
994
968
969
967
1035
1055
1054
1062
1056
1069
1042
1042
1047
1051
1062
1046
1022
1038
1063
1070
1067
1071
1086
1104
1118
1217
1333
1456
1518
1509
1455
1357
1264
1186
1146
1102
1068
1007
981
963
974
977
1022
1042
1067
1058
1056
1054
1037
1049
1023
1017
1022
1007
1043
1023
1055
1072
1059
1097
1187
1296
1401
1458
1456
1392
1286
1214
1157
1095
1055
999
974
935
948
971
1022
1040
1065
1088
1073
1072
1058
1042
1023
1038
1022
1039
1009
1017
1038
1038
1041
1053
1094
1203
1337
1465
1511
1492
1422
1299
1201
1145
1095
1078
1049
989
960
944
959
987
1039
1073
1088
1083
1072
1060
1037
1055
1070
1074
1061
1069
1052
1084
1098
1091
1083
1133
1120
1136
1232
1367
1472
1520
1535
1488
1376
1303
1233
1169
1101
1084
1041
1001
958
959
975
979
1045
1040
1039
1007
995
976
958
963
944
959
961
965
1006
1003
1035
1062
1072
1059
1071
1088
1127
1212
1330
1409
1445
1411
1353
1284
1222
1175
1137
1104
1053
1015
1008
1008
1019
1044
1083
1088
1099
1073
1077
1055
1052
1054
1043
1045
1059
1072
1075
1088
1082
1088
1104
1168
1281
1394
1468
1478
1435
1378
1314
1254
1212
1166
1137
1101
1069
1047
1022
1023
1051
1069
1106
1090
1095
1085
1082
1066
1044
1058
1040
1056
1062
1067
1090
1077
1075
1075
1095
1161
1270
1397
1457
1458
1435
1373
1289
1235
1186
1121
1086
1050
1009
986
974
998
1007
1045
1066
1070
1094
1063
1051
1042
1057
1057
1063
1072
1072
1086
1092
1084
1094
1099
1147
1217
1334
1424
1481
1471
1423
1343
1267
1232
1158
1109
1104
1088
1001
993
1061
1057
1050
1092
1127
1093
1066
1071
1074
1013
1014
1039
1072
1015
1041
1063
1062
1060
1140
1265
1361
1417
1425
1381
1279
1223
1202
1138
1086
1070
1038
997
999
1006
1079
1082
1086
1097
1100
1097
1072
1071
1051
1043
1051
1055
1063
1079
1071
1090
1097
1123
1223
1358
1445
1463
1457
1402
1310
1232
1181
1138
1090
1059
1022
992
991
991
989
1040
1075
1082
1063
1057
1061
1039
1051
1021
1015
1031
1044
1046
1054
1075
1072
1079
1104
1177
1295
1394
1467
1477
1427
1335
1284
1213
1178
1126
1078
1040
1010
983
996
993
1022
1056
1061
1068
1074
1070
1052
1041
1042
1010
1021
1041
1023
1052
1059
1070
1057
1072
1125
1190
1296
1407
1447
1453
1403
1331
1260
1202
1136
1103
1072
1041
1004
998
989
1008
1023
1057
1072
1078
1069
1059
1049
1047
1040
1040
1040
1056
1053
1051
1070
1074
1104
1170
1278
1373
1419
1392
1349
1264
1218
1162
1119
1086
1037
1008
987
976
1001
1023
1050
1084
1075
1087
1072
1056
1047
1035
1011
1022
1022
1023
1039
1042
1061
1140
1234
1341
1401
1399
1360
1271
1229
1163
1112
1091
1043
1010
985
967
973
1009
1054
1046
1072
1072
1067
1072
1061
1053
1049
1040
1045
1040
1061
1058
1070
1069
1103
1200
1302
1402
1440
1424
1361
1275
1216
1163
1102
1078
1042
1015
977
951
980
1010
1044
1069
1058
1061
1062
1063
1059
1054
1052
1048
1069
1073
1077
1072
1072
1072
1095
1136
1214
1331
1427
1447
1430
1374
1281
1210
1168
1139
1091
1075
1040
1007
986
997
1015
1040
1076
1077
1071
1059
1045
1038
1050
1023
1054
1075
1070
1072
1104
1107
1119
1138
1200
1312
1414
1452
1447
1386
1296
1232
1181
1124
1068
1040
1021
976
967
1002
1035
1056
1061
1085
1082
1079
1056
1054
1047
1018
1019
1059
1051
1072
1073
1078
1083
1177
1279
1382
1408
1405
1347
1277
1223
1174
1131
1099
1053
1018
980
992
1007
1014
1067
1080
1079
1083
1070
1075
1061
1044
1056
1050
1061
1055
1066
1068
1075
1111
1200
1299
1391
1440
1429
1373
1299
1243
1201
1146
1109
1073
1039
1008
994
977
1007
1041
1077
1069
1075
1070
1064
1055
1043
1040
1054
1043
1041
1074
1088
1085
1088
1100
1143
1249
1377
1441
1468
1445
1380
1307
1255
1191
1139
1115
1075
1040
1019
999
993
1008
1040
1071
1076
1076
1075
1067
1043
1034
1040
1023
1031
1042
1062
1055
1067
1056
1073
1107
1182
1266
1374
1456
1456
1422
1367
1280
1239
1188
1136
1103
1065
1042
1007
1005
1019
1040
1069
1091
1084
1077
1072
1063
1056
1038
1045
1039
1043
1042
1043
1070
1060
1070
1130
1231
1330
1411
1433
1392
1348
1263
1215
1162
1110
1078
1034
999
1001
1006
1011
1059
1090
1098
1089
1072
1068
1063
1038
1039
1042
1023
1042
1059
1047
1058
1078
1101
1159
1271
1379
1441
1441
1392
1297
1257
1203
1145
1111
1071
1023
998
975
954
986
1041
1052
1054
1066
1071
1068
1052
1053
1046
1035
1037
1045
1040
1043
1079
1045
1068
1072
1122
1232
1345
1461
1520
1488
1424
1354
1296
1217
1173
1114
1078
1037
998
976
976
988
1017
1057
1060
1043
1055
1052
1032
1040
1010
1022
1037
1017
1014
1023
1034
1047
1055
1046
1057
1087
1136
1245
1366
1450
1475
1456
1395
1328
1248
1195
1153
1126
1051
1008
991
980
976
983
1018
1058
1063
1055
1051
1046
1040
1037
1021
1017
1011
1023
1035
1040
1055
1066
1083
1140
1239
1360
1426
1442
1396
1345
1265
1211
1150
1111
1082
1022
1001
999
998
1019
1077
1084
1095
1079
1088
1070
1023
979
1017
1008
1011
1018
995
1018
1055
1040
1072
1136
1257
1376
1430
1427
1370
1298
1229
1184
1139
1090
1051
1006
987
969
966
1012
1039
1052
1057
1055
1040
1040
1037
1035
1038
1040
1038
1053
1070
1067
1072
1067
1094
1147
1271
1382
1439
1471
1434
1365
1330
1209
1190
1136
1089
1041
998
978
957
966
993
1023
1037
1041
1034
1019
1008
1017
1009
997
1002
1007
1011
1023
1041
1062
1061
1072
1088
1163
1264
1373
1456
1453
1423
1328
1280
1196
1131
1097
1071
1038
1008
989
983
993
1023
1051
1047
1055
1063
1054
1046
1036
1041
1023
1021
1019
1023
1034
1046
1051
1061
1079
1175
1266
1382
1410
1392
1349
1271
1232
1169
1122
1072
1041
993
976
965
986
1058
1053
1068
1053
1056
1053
1049
1015
1005
1002
1001
1005
1006
1015
1014
1022
1088
1173
1275
1338
1359
1328
1283
1225
1168
1091
1088
1039
994
963
946
955
982
1010
1033
1043
1040
1047
1046
1036
1023
1023
1013
1018
1013
1022
1053
1050
1063
1056
1088
1159
1264
1350
1393
1375
1344
1265
1223
1167
1122
1090
1055
1013
990
972
976
977
999
1040
1015
1017
1013
1038
1003
999
993
975
991
994
1007
991
999
1023
1038
1041
1059
1130
1218
1294
1342
1341
1329
1269
1237
1198
1163
1125
1089
1071
1039
1015
1005
1007
1040
1047
1056
1072
1040
1040
1023
1021
979
962
964
1003
994
1000
1001
995
1040
1098
1194
1267
1331
1327
1296
1237
1196
1154
1126
1087
1072
1022
992
1003
1009
1023
1057
1043
1052
1069
1058
1040
1044
1053
1034
1037
1034
1040
1023
1042
1041
1057
1114
1199
1273
1327
1338
1307
1251
1192
1146
1095
1072
1023
997
976
960
951
970
993
1008
1013
1040
1023
1014
1008
1017
992
1005
1009
1021
1037
1040
1050
1049
1060
1088
1138
1230
1311
1390
1390
1360
1299
1240
1198
1147
1088
1072
1034
996
973
951
976
981
1013
1017
1034
1034
1017
1022
1010
1011
1003
994
994
991
976
1009
1038
1015
1023
1043
1067
1152
1260
1333
1386
1405
1369
1302
1254
1174
1135
1077
1061
1011
975
969
951
973
1003
1023
1045
1041
1043
1053
1043
1034
1015
1008
995
1009
1021
1035
1023
1041
1066
1079
1136
1236
1328
1367
1360
1309
1236
1193
1131
1078
1046
992
955
948
957
982
1018
1007
1040
1069
1071
1058
1063
1074
1063
1075
1072
1089
1089
1109
1130
1136
1148
1167
1235
1328
1391
1360
1321
1261
1231
1184
1099
1052
1005
987
947
925
896
885
925
942
975
970
976
999
1039
1034
1047
1035
1044
1035
1023
1002
1005
1021
1068
1072
1094
1082
1104
1147
1230
1318
1392
1415
1389
1327
1265
1213
1158
1126
1091
1059
1018
998
987
984
1008
1047
1040
1044
1056
1065
1042
1043
1034
1021
1039
1023
1044
1067
1085
1075
1077
1085
1083
1104
1132
1210
1311
1392
1425
1392
1343
1265
1222
1152
1103
1077
1071
1018
967
978
976
1008
1056
1043
1046
1013
1045
1052
1014
1002
981
1022
1045
1068
1076
1077
1107
1127
1137
1143
1153
1173
1233
1310
1413
1478
1504
1459
1371
1314
1238
1184
1146
1121
1094
1070
1060
1056
1072
1083
1119
1129
1129
1126
1119
1113
1093
1110
1099
1066
1098
1102
1105
1104
1104
1116
1156
1214
1322
1404
1423
1399
1351
1264
1207
1153
1118
1073
1037
1005
1001
1006
1038
1087
1103
1104
1113
1104
1081
1070
1056
1051
1045
1050
1071
1061
1081
1088
1094
1133
1189
1318
1423
1471
1452
1393
1313
1247
1218
1162
1117
1079
1066
1037
996
1004
1034
1083
1098
1097
1088
1081
1062
1078
1072
1050
1066
1072
1086
1086
1090
1097
1104
1115
1153
1239
1346
1442
1483
1472
1407
1334
1269
1213
1166
1111
1070
1048
1009
996
994
1002
1033
1078
1088
1085
1073
1071
1062
1046
1047
1040
1043
1045
1072
1072
1081
1091
1069
1077
1101
1178
1269
1381
1454
1482
1459
1387
1301
1263
1205
1159
1108
1088
1043
1011
1008
1006
1031
1049
1073
1085
1078
1072
1034
1008
1019
991
1006
1022
1022
1072
1072
1088
1088
1099
1111
1114
1155
1268
1363
1450
1485
1460
1399
1322
1271
1223
1167
1143
1104
1084
1035
1018
1040
1058
1088
1116
1115
1115
1104
1086
1072
1074
1066
1046
1045
1058
1057
1058
1068
1082
1090
1151
1236
1349
1414
1443
1402
1351
1270
1207
1168
1122
1086
1034
1010
991
1005
1040
1077
1072
1052
1039
1051
1020
974
932
946
971
1008
1014
1021
1038
1049
1093
1086
1151
1209
1290
1382
1408
1401
1387
1289
1232
1167
1115
1110
1127
1057
1020
1002
1031
1104
1152
1127
1103
1115
1118
1155
1139
1129
1104
1072
1072
1055
1058
1049
1053
1088
1104
1099
1114
1165
1266
1380
1456
1488
1477
1424
1313
1232
1162
1131
1122
1103
1055
1034
1012
1046
1067
1067
1104
1079
1106
1097
1075
1056
1015
1001
1019
1019
1023
1019
1022
1086
1089
1130
1121
1109
1121
1148
1227
1367
1425
1443
1419
1433
1410
1351
1250
1205
1152
1086
1077
978
897
893
907
1002
996
1009
985
944
945
1006
1011
1047
1061
1054
1009
979
976
973
1008
1008
1017
1075
1113
1164
1200
1180
1242
1325
1427
1483
1530
1590
1535
1482
1402
1293
1223
1191
1134
1041
944
840
791
821
842
882
927
945
981
998
999
1047
1086
1121
1163
1134
1094
1051
1059
1056
1040
1090
1163
1264
1323
1358
1427
1427
1347
1276
1257
1191
1127
1057
967
979
992
1008
1090
1114
1107
1120
1105
1078
1047
1057
1046
1023
1006
959
915
912
935
1010
1095
1173
1307
1391
1441
1444
1392
1322
1233
1193
1150
1084
1074
1040
1003
1018
1020
1088
1098
1119
1134
1134
1104
1104
1093
1072
1042
1041
1035
1046
1021
1023
1038
1035
1040
1077
1088
1165
1294
1392
1453
1445
1389
1307
1273
1217
1136
1098
1063
1034
970
976
983
972
991
1033
1015
1015
1037
1021
1001
1002
974
971
958
960
960
976
1017
1049
1010
1011
1092
1023
1162
1407
1469
1477
1530
1509
1419
1392
1354
1270
1193
1151
1083
1017
976
967
974
995
1070
1073
1103
1078
1057
1075
1072
1061
1051
1066
1056
1023
1014
1039
1045
1072
1157
1285
1354
1367
1357
1298
1227
1195
1171
1158
1104
1044
1007
1007
1002
1020
1081
1084
1104
1121
1130
1127
1104
1111
1107
1082
1021
975
999
986
995
1055
1120
1231
1392
1520
1557
1519
1456
1376
1302
1262
1207
1168
1100
1050
1011
1018
1006
1008
1002
1010
1015
1038
1005
977
975
971
991
1013
987
1008
1003
1039
1049
1043
1083
1194
1333
1454
1523
1535
1506
1467
1386
1309
1244
1182
1128
1057
1021
986
985
1011
1023
1079
1095
1104
1104
1088
1063
1055
1062
1053
1010
1003
1010
1007
1017
1023
1045
1057
1157
1112
1235
1360
1444
1491
1466
1412
1334
1269
1211
1154
1119
1101
1044
1015
986
983
992
1022
1056
1056
1069
1061
1050
1042
1040
1046
1039
1019
1015
1023
1019
1035
1049
1072
1047
1054
1047
1076
1168
1293
1424
1478
1157
1309
1407
1457
1467
1419
1317
1281
1214
1178
1120
1077
1023
1005
991
1013
1013
1061
1071
1094
1084
1082
1066
1061
1047
1053
1055
1039
1050
1049
1063
1056
1073
1100
1168
1293
1391
1446
1444
1407
1319
1243
1205
1150
1119
1072
1049
1021
994
993
1008
1047
1104
1099
1088
1071
1047
1047
1038
1019
1018
1011
1021
1023
1067
1073
1082
1104
1191
1303
1397
1424
1418
1339
1275
1230
1191
1137
1101
1073
1050
1012
1005
1015
1023
1089
1082
1081
1080
1070
1072
1066
1042
1037
1040
1066
1056
1066
1070
1085
1125
1212
1319
1417
1442
1427
1373
1298
1254
1190
1146
1113
1072
1018
983
960
976
997
1044
1042
1047
1047
1053
1040
1041
1039
1034
999
1013
1020
1040
1039
1043
1079
1171
1299
1399
1456
1418
1374
1283
1236
1175
1136
1101
1059
1035
992
993
992
1006
1023
1056
1063
1070
1061
1055
1057
1052
1045
1040
1040
1063
1054
1050
1072
1074
1104
1202
1334
1440
1488
1474
1411
1321
1265
1194
1152
1098
1062
1008
969
963
964
977
985
1021
1049
1041
1044
1035
1021
1009
1014
1005
1009
1010
1009
1038
1049
1065
1072
1092
1104
1150
1273
1376
1459
1491
1454
1395
1302
1248
1179
1137
1095
1066
1023
1001
981
998
1019
1066
1062
1071
1075
1074
1068
1045
1053
1044
1035
1022
1040
1057
1070
1072
1082
1089
1091
1152
1242
1367
1449
1481
1430
1372
1279
1207
1147
1119
1078
1053
1003
983
1003
1038
1077
1089
1102
1097
1078
1072
1072
1041
1039
1040
1023
1035
1037
1104
1079
1074
1083
1115
1186
1308
1392
1435
1414
1369
1290
1229
1168
1122
1072
1023
995
958
966
981
992
1035
1056
1065
1059
1050
1049
1052
1017
1014
1023
1008
1009
1010
1035
1023
1051
1053
1097
1168
1296
1424
1485
1459
1409
1313
1254
1196
1132
1093
1048
1005
971
958
962
987
995
1041
1040
1053
1055
1057
1040
1017
1002
1003
1018
1035
1015
1043
1040
1056
1072
1082
1089
1118
1169
1291
1413
1473
1479
1434
1337
1283
1216
1136
1101
1049
1034
979
958
954
960
979
1015
1046
1045
1051
1042
1023
1021
1014
1009
1019
1023
1040
1037
1047
1068
1061
1072
1100
1110
1109
1114
1156
1265
1380
1465
1488
1475
1405
1314
1222
1175
1107
1081
1049
1003
986
961
980
982
1056
1055
1061
1072
1051
1041
1049
1021
1021
1017
1022
1011
1037
1040
1047
1079
1070
1084
1090
1111
1120
1136
1193
1307
1414
1483
1488
1449
1341
1296
1222
1152
1093
1074
1035
1001
973
980
993
1012
1055
1070
1058
1054
1068
1052
1056
1035
1041
1066
1051
1062
1057
1070
1073
1084
1088
1121
1187
1311
1411
1466
1443
1393
1305
1243
1195
1137
1097
1046
1008
979
1006
1005
1068
1067
1088
1102
1088
1086
1072
1057
1059
1052
1043
1039
1043
1059
1058
1083
1072
1100
1114
1189
1299
1420
1481
1463
1402
1306
1254
1197
1143
1111
1076
1023
1007
993
1005
1023
1078
1063
1070
1065
1065
1071
1066
1044
1040
1034
1018
1023
1039
1056
1055
1073
1098
1092
1104
1115
1207
1323
1413
1472
1478
1429
1327
1265
1205
1170
1117
1088
1053
1009
996
986
1008
1020
1057
1053
1070
1057
1062
1040
1037
1023
1037
1011
1008
1035
1045
1062
1065
1072
1078
1094
1092
1136
1214
1328
1424
1478
1469
1406
1329
1265
1198
1159
1125
1076
1043
999
999
1004
1021
1037
1067
1064
1066
1052
1050
1046
1037
1015
1003
1011
1007
1035
1023
1052
1051
1066
1072
1083
1095
1110
1121
1180
1265
1373
1434
1456
1408
1314
1258
1198
1155
1104
1072
1037
981
957
971
1002
1053
1060
1088
1088
1082
1049
1059
1040
1039
1039
1040
1033
1037
1051
1071
1057
1062
1079
1099
1154
1242
1338
1390
1395
1357
1296
1232
1191
1152
1121
1085
1054
1009
1002
991
1031
1061
1072
1061
1082
1066
1058
1054
1058
1034
1018
1010
1012
1011
1040
1047
1040
1049
1104
1152
1251
1364
