1357
1450
1486
1459
1437
1386
1326
1296
1282
1301
1318
1339
1418
1465
1478
1504
1525
1559
1584
1600
1628
1642
1671
1679
1701
1755
1883
2213
2729
3403
4080
4095
4062
3622
3130
2714
2431
2186
1971
1754
1535
1395
1308
1274
1287
1327
1379
1411
1424
1421
1387
1343
1329
1295
1289
1285
1303
1321
1386
1435
1456
1470
1500
1513
1581
1570
1591
1629
1622
1656
1674
1712
1871
2240
2805
3563
4095
4095
4073
3536
3024
2642
2367
2114
1927
1711
1507
1358
1264
1239
1265
1322
1365
1435
1463
1439
1399
1296
1271
1264
1245
1266
1276
1287
1376
1412
1429
1456
1485
1503
1506
1535
1562
1584
1614
1617
1637
1665
1751
1989
2442
3090
3941
4095
4095
4058
3472
2928
2547
2261
2010
1808
1610
1397
1265
1211
1202
1251
1296
1349
1421
1438
1402
1331
1255
1230
1218
1217
1223
1235
1296
1383
1408
1423
1467
1489
1488
1530
1557
1569
1596
1616
1648
1680
1839
2209
2755
3546
4095
4095
4095
3790
3206
2735
2386
2142
1901
1689
1469
1317
1214
1174
1189
1236
1298
1379
1418
1427
1392
1302
1232
1239
1215
1219
1231
1257
1348
1376
1406
1436
1473
1501
1521
1535
1566
1590
1598
1646
1681
1809
2122
2640
3391
4095
4095
4095
3780
3203
2736
2386
2128
1889
1678
1466
1298
1191
1155
1178
1229
1298
1401
1419
1415
1396
1349
1264
1242
1232
1241
1250
1285
1362
1396
1415
1456
1458
1519
1535
1563
1574
1616
1665
1671
1692
1726
1740
1763
1841
2093
2519
3171
4049
4095
4095
3963
3354
2848
2480
2176
1929
1724
1518
1351
1248
1211
1236
1312
1375
1491
1527
1511
1495
1451
1374
1347
1330
1318
1304
1345
1411
1461
1498
1502
1530
1526
1584
1584
1604
1641
1674
1674
1706
1710
1777
1973
2365
2949
3691
4095
4095
3871
3303
2841
2471
2187
1960
1755
1584
1395
1284
1251
1264
1307
1385
1495
1523
1518
1519
1477
1389
1360
1344
1344
1357
1357
1391
1481
1497
1532
1567
1584
1614
1632
1648
1664
1655
1701
1690
1715
1770
1911
2249
2713
3333
3953
4070
3839
3345
2896
2547
2277
2044
1872
1685
1535
1403
1307
1293
1310
1359
1427
1528
1530
1520
1514
1488
1399
1381
1370
1380
1405
1456
1509
1535
1558
1598
1602
1629
1646
1679
1680
1702
1723
1731
1769
1807
1984
2288
2733
3221
3654
3723
3536
3184
2771
2510
2269
2093
1905
1723
1565
1455
1375
1366
1411
1450
1522
1600
1618
1616
1574
1554
1477
1453
1440
1453
1473
1490
1586
1606
1616
1634
1659
1695
1701
1718
1719
1727
1738
1757
1794
1888
2154
2555
3029
3557
3755
3632
3259
2899
2559
2311
2083
1901
1735
1584
1473
1421
1411
1432
1507
1570
1644
1653
1630
1616
1520
1486
1490
1457
1456
1485
1534
1605
1642
1635
1653
1679
1681
1678
1707
1712
1727
1744
1818
2006
2375
2834
3356
3719
3711
3390
3028
2686
2414
2164
1975
1794
1628
1474
1418
1375
1382
1461
1520
1629
1638
1616
1599
1535
1477
1472
1449
1453
1469
1479
1579
1599
1613
1648
1670
1681
1695
1713
1712
1723
1735
1755
1782
1855
2082
2479
2963
3515
3877
3815
3481
3083
2722
2416
2174
1968
1799
1626
1475
1383
1360
1360
1389
1451
1515
1569
1571
1573
1520
1520
1442
1408
1424
1449
1468
1523
1587
1597
1619
1669
1684
1694
1707
1708
1749
1753
1766
1783
1797
1830
1906
2141
2503
2992
3539
3888
3819
3490
3089
2738
2437
2179
1994
1815
1631
1492
1418
1374
1377
1411
1473
1575
1626
1617
1622
1594
1578
1535
1473
1487
1479
1499
1584
1610
1632
1665
1675
1705
1727
1743
1751
1761
1780
1790
1823
1859
2023
2335
2768
3294
3690
3782
3504
3140
2765
2448
2178
1975
1778
1613
1462
1392
1355
1379
1437
1504
1616
1651
1658
1643
1621
1614
1516
1515
1510
1520
1530
1615
1655
1676
1680
1713
1724
1744
1771
1771
1779
1780
1801
1825
1867
2046
2362
2820
3370
3794
3825
3535
3130
2763
2441
2166
1969
1781
1621
1488
1392
1347
1373
1413
1469
1589
1625
1642
1621
1600
1586
1575
1485
1481
1498
1520
1601
1647
1651
1677
1693
1732
1744
1759
1774
1796
1808
1814
1847
1841
1890
1968
2205
2608
3106
3691
3919
3754
3382
3004
2668
2378
2134
1927
1756
1598
1467
1378
1358
1383
1431
1470
1582
1633
1623
1625
1622
1589
1584
1584
1565
1575
1553
1586
1601
1629
1661
1680
1728
1739
1775
1786
1797
1812
1838
1825
1851
1899
2057
2368
2832
3359
3814
3887
3648
3191
2791
2487
2192
1990
1795
1617
1488
1386
1365
1376
1415
1481
1600
1640
1647
1634
1634
1609
1587
1515
1497
1515
1535
1620
1651
1680
1685
1713
1742
1758
1765
1780
1797
1808
1824
1843
1903
2079
2422
2877
3404
3760
3777
3500
3106
2751
2462
2201
1966
1795
1618
1495
1385
1349
1365
1429
1485
1609
1650
1637
1630
1631
1607
1595
1585
1572
1570
1584
1611
1623
1643
1680
1698
1726
1744
1763
1799
1804
1823
1837
1867
1906
2015
2304
2743
3251
3744
3883
3665
3239
2870
2515
2263
2017
1825
1659
1517
1420
1359
1377
1415
1478
1614
1648
1659
1659
1631
1630
1600
1535
1505
1534
1535
1586
1652
1667
1686
1715
1750
1749
1760
1789
1794
1805
1819
1830
1887
2017
2320
2777
3319
3767
3863
3633
3253
2859
2532
2261
2026
1830
1653
1511
1419
1356
1358
1424
1456
1579
1619
1635
1629
1626
1596
1579
1495
1498
1495
1519
1581
1633
1664
1689
1699
1718
1741
1776
1776
1799
1808
1811
1823
1858
1877
1985
2246
2663
3157
3659
3837
3717
3344
2966
2638
2343
2122
1934
1744
1601
1469
1390
1367
1392
1446
1511
1603
1642
1616
1607
1612
1583
1584
1558
1535
1535
1565
1584
1637
1649
1663
1708
1718
1744
1771
1789
1797
1811
1823
1845
1865
1945
2161
2528
3024
3549
3839
3760
3433
3038
2683
2385
2133
1936
1742
1590
1455
1386
1367
1411
1453
1520
1616
1659
1637
1621
1599
1574
1500
1493
1499
1515
1535
1621
1636
1655
1682
1711
1744
1750
1765
1792
1789
1821
1817
1840
1855
1910
2078
2423
2893
3440
3862
3900
3601
3200
2805
2476
2213
2000
1808
1643
1489
1403
1377
1378
1397
1471
1568
1601
1616
1615
1599
1595
1560
1518
1486
1488
1509
1584
1648
1632
1670
1681
1713
1734
1751
1776
1786
1795
1824
1830
1862
1870
1921
2083
2414
2875
3415
3851
3907
3665
3253
2842
2512
2238
2013
1826
1653
1494
1391
1344
1328
1361
1433
1535
1596
1613
1622
1606
1590
1581
1558
1556
1555
1535
1579
1584
1602
1651
1671
1698
1735
1740
1779
1790
1825
1826
1841
1857
1875
1873
1903
1943
2090
2418
2864
3459
3881
3955
3669
3295
2863
2521
2273
2037
1819
1650
1488
1392
1337
1368
1393
1439
1563
1609
1616
1634
1630
1615
1599
1587
1586
1575
1583
1595
1590
1642
1689
1701
1701
1753
1776
1777
1808
1833
1838
1847
1856
1879
1889
1961
2160
2509
2970
3523
3861
3829
3555
3165
2769
2462
2192
1984
1793
1654
1471
1405
1358
1375
1424
1494
1605
1655
1662
1635
1633
1610
1594
1600
1593
1594
1587
1610
1616
1643
1675
1695
1731
1749
1763
1788
1806
1836
1829
1861
1872
1890
1962
2175
2544
3019
3557
3888
3863
3532
3136
2757
2447
2176
1978
1776
1617
1458
1392
1360
1375
1427
1489
1603
1642
1651
1648
1619
1603
1606
1504
1498
1531
1535
1606
1648
1680
1682
1707
1726
1762
1777
1782
1802
1819
1829
1850
1891
2030
2351
2826
3395
3920
4044
3760
3349
2907
2544
2241
2000
1786
1600
1431
1337
1314
1347
1397
1484
1600
1627
1648
1621
1607
1587
1523
1481
1486
1505
1519
1589
1627
1659
1668
1698
1723
1732
1763
1765
1769
1798
1805
1849
2016
2401
2931
3618
4095
4095
3931
3398
2901
2512
2237
1970
1751
1583
1419
1321
1254
1264
1335
1391
1524
1572
1600
1571
1535
1520
1465
1422
1438
1431
1457
1535
1582
1601
1629
1648
1661
1680
1697
1714
1735
1753
1763
1794
1933
2225
2743
3459
4095
4095
4095
3769
3195
2711
2378
2111
1865
1674
1461
1325
1214
1181
1202
1277
1355
1457
1523
1515
1491
1481
1454
1391
1342
1354
1363
1414
1492
1514
1535
1578
1603
1624
1674
1699
1714
1721
1734
1774
1779
1808
1925
2226
2746
3504
4095
4095
4095
3974
3334
2799
2420
2117
1875
1658
1463
1322
1209
1172
1200
1255
1333
1443
1482
1498
1488
1462
1430
1361
1348
1350
1360
1379
1458
1505
1519
1535
1583
1610
1631
1676
1696
1713
1713
1753
1754
1791
1859
2091
2539
1315
4095
4095
4095
4054
3441
2896
2500
2187
1935
1712
1486
1328
1231
1177
1183
1249
1333
1462
1506
1515
1504
1485
1466
1395
1363
1355
1363
1392
1473
1522
1527
1562
1581
1621
1617
1648
1659
1691
1709
1792
2006
2449
3107
1326
1360
1415
1515
1566
1569
1535
1515
1495
1419
1408
1410
1424
1451
1531
1566
1606
1618
1649
1675
1673
1696
1715
1731
1765
1792
1808
1808
1826
1939
2230
2661
3274
3879
4095
3870
3429
2977
2602
2323
2067
1859
1680
1503
1367
1319
1297
1348
1389
1491
1565
1572
1558
1535
1524
1511
1442
1426
1450
1466
1527
1591
1597
1622
1639
1669
1683
1702
1730
1757
1776
1791
1808
1817
1833
1825
1897
1956
2215
2657
3242
3889
4095
4016
3566
3107
2695
2387
2128
1934
1744
1571
1424
1355
1315
1309
1360
1418
1509
1535
1535
1535
1530
1517
1501
1498
1490
1508
1533
1535
1590
1600
1627
1670
1693
1707
1728
1765
1771
1808
1813
1812
1873
1867
1887
1985
2259
2725
3324
3861
4069
3807
3371
2943
2559
2265
2017
1825
1655
1504
1402
1339
1345
1397
1457
1584
1623
1648
1639
1596
1583
1520
1488
1475
1488
1520
1559
1627
1648
1658
1699
1707
1719
1748
1751
1773
1765
1790
1814
1860
1987
2322
2813
3450
3908
4016
3714
3258
2858
2496
2213
1989
1808
1638
1482
1383
1319
1328
1358
1393
1508
1563
1599
1574
1558
1535
1534
1461
1440
1461
1488
1568
1600
1623
1638
1666
1699
1714
1747
1762
1777
1789
1809
1821
1829
1850
1895
1991
2293
2735
3307
3855
4033
3791
3399
2954
2622
2319
2092
1894
1712
1535
1430
1355
1339
1363
1413
1463
1567
1586
1597
1585
1569
1535
1507
1470
1472
1488
1564
1603
1626
1639
1674
1702
1727
1739
1764
1779
1806
1813
1856
1849
1861
1904
1966
2179
2559
3037
3583
3927
3838
3463
3039
2688
2394
2131
1941
1718
1568
1437
1374
1360
1394
1443
1535
1634
1645
1651
1623
1615
1570
1490
1492
1506
1513
1570
1638
1666
1664
1701
1734
1732
1747
1798
1807
1817
1815
1840
1834
1853
1959
2225
2666
3179
3696
3899
3707
3343
2958
2607
2318
2100
1893
1711
1564
1431
1379
1377
1407
1463
1505
1610
1616
1609
1593
1611
1562
1535
1472
1489
1502
1521
1616
1646
1680
1681
1707
1729
1749
1777
1801
1811
1808
1825
1846
1872
1933
2174
2592
3105
3643
3987
3849
3468
3071
2701
2404
2160
1971
1763
1611
1457
1385
1344
1359
1399
1470
1584
1612
1626
1612
1580
1572
1559
1477
1472
1488
1532
1611
1631
1665
1667
1694
1715
1734
1761
1767
1795
1807
1809
1824
1871
1968
2254
2677
3239
3774
3978
3749
3345
2925
2559
2300
2073
1869
1693
1520
1408
1363
1351
1374
1417
1509
1590
1613
1581
1535
1557
1535
1520
1531
1535
1535
1553
1581
1601
1628
1665
1689
1698
1739
1753
1775
1792
1811
1824
1840
1866
1903
2058
2384
2859
3426
3890
3934
3627
3212
2809
2470
2198
1978
1783
1614
1469
1392
1374
1390
1444
1559
1632
1677
1663
1648
1616
1571
1527
1506
1520
1535
1557
1635
1653
1671
1682
1713
1735
1753
1756
1770
1771
1802
1809
1850
1942
2251
2691
3248
3764
3945
3728
3327
2919
2559
2259
2038
1843
1662
1497
1399
1335
1330
1378
1454
1570
1604
1617
1611
1584
1581
1532
1466
1467
1488
1498
1589
1611
1631
1677
1680
1709
1721
1763
1749
1762
1785
1805
1811
1831
1903
2094
2483
3003
3659
4071
4042
3651
3198
2785
2461
2175
1979
1776
1600
1454
1350
1306
1312
1363
1414
1520
1584
1601
1584
1584
1535
1523
1445
1441
1455
1490
1535
1591
1619
1638
1662
1680
1707
1747
1744
1775
1798
1807
1818
1837
1859
1872
1904
1958
2151
2517
3086
3710
4095
4086
3709
3251
2819
2471
2175
1955
1774
1613
1458
1360
1314
1314
1369
1442
1535
1595
1607
1622
1600
1582
1558
1535
1535
1535
1535
1563
1579
1589
1635
1648
1686
1712
1742
1762
1779
1786
1809
1858
1850
1869
1901
1893
1939
2079
2389
2879
3514
4047
4095
3779
3322
2871
2525
2228
1979
1782
1611
1469
1376
1312
1315
1380
1427
1569
1613
1630
1638
1616
1594
1596
1535
1492
1515
1518
1565
1646
1648
1663
1699
1722
1729
1746
1765
1795
1797
1813
1833
1857
1877
1871
1927
2111
2443
2946
3573
4035
4079
3733
3293
2839
2489
2206
1979
1767
1610
1447
1350
1323
1321
1364
1449
1535
1600
1623
1637
1632
1601
1595
1595
1584
1588
1579
1618
1617
1650
1670
1703
1731
1743
1760
1794
1822
1829
1842
1840
1870
1873
1901
2007
2257
2665
3193
3737
3985
3870
3427
2983
2650
2327
2087
1882
1699
1535
1417
1353
1351
1379
1427
1527
1624
1635
1642
1651
1616
1599
1584
1594
1581
1587
1590
1604
1616
1638
1666
1709
1716
1746
1783
1799
1796
1813
1840
1852
1871
1952
2143
2512
3024
3583
3983
3952
3634
3168
2758
2457
2192
1967
1785
1611
1479
1391
1350
1367
1424
1488
1584
1621
1633
1630
1611
1593
1569
1506
1495
1520
1558
1635
1655
1683
1694
1718
1725
1769
1776
1801
1801
1817
1842
1915
2147
2527
3057
3663
3979
3904
3505
3064
2673
2361
2126
1894
1698
1519
1395
1347
1310
1355
1426
1535
1614
1614
1618
1584
1574
1514
1482
1467
1472
1494
1552
1598
1635
1648
1680
1694
1712
1729
1745
1762
1776
1814
1819
1869
2055
2407
2933
3629
4095
4095
3891
3375
2891
2523
2236
2004
1803
1613
1450
1346
1277
1300
1319
1391
1506
1558
1586
1535
1535
1554
1517
1456
1410
1425
1463
1526
1570
1587
1619
1648
1680
1712
1721
1743
1758
1782
1795
1808
1840
1943
2241
2709
3388
4068
4095
4095
3648
3136
2693
2384
2102
1892
1698
1522
1388
1297
1287
1301
1349
1398
1493
1535
1515
1535
1515
1493
1474
1485
1471
1472
1493
1510
1531
1566
1595
1616
1655
1670
1677
1687
1701
1733
1771
1888
2183
2675
3354
4037
4095
4042
3503
2995
2621
2302
2058
1833
1636
1455
1344
1277
1269
1307
1383
1475
1532
1558
1535
1520
1495
1469
1417
1408
1418
1426
1489
1535
1577
1584
1613
1639
1681
1691
1712
1742
1749
1766
1783
1811
1833
1931
2221
2688
3327
4047
4095
4095
3693
3127
2706
2357
2093
1854
1661
1482
1360
1275
1264
1278
1328
1405
1508
1517
1535
1520
1517
1477
1474
1402
1391
1415
1454
1535
1581
1569
1626
1680
1680
1719
1712
1759
1753
1785
1787
1827
1885
2105
2513
3092
3842
4095
4095
3755
3195
2751
2394
2109
1887
1664
1488
1341
1271
1261
1289
1374
1452
1535
1557
1535
1533
1520
1493
1424
1399
1409
1422
1452
1533
1579
1610
1665
1645
1663
1683
1728
1718
1744
1757
1793
1837
2015
2451
3008
3760
4095
4095
3892
3351
2861
2477
2187
1949
1745
1571
1391
1293
1248
1239
1288
1360
1470
1520
1526
1510
1488
1456
1394
1370
1365
1389
1425
1498
1523
1574
1591
1625
1655
1679
1717
1725
1739
1791
1792
1796
1840
1895
2016
2363
2949
3727
4095
4095
4059
3506
2960
2586
2263
2007
1792
1598
1418
1312
1249
1264
1313
1382
1477
1535
1535
1535
1518
1491
1414
1381
1395
1397
1418
1473
1535
1566
1584
1605
1633
1657
1679
1706
1711
1733
1754
1825
2032
2443
3024
3779
4095
4095
3970
3349
2835
2447
2169
1932
1721
1522
1360
1263
1224
1232
1274
1343
1461
1499
1504
1505
1467
1437
1366
1339
1359
1365
1387
1474
1500
1531
1566
1594
1617
1645
1680
1711
1711
1737
1749
1767
1812
1906
2174
2672
3433
4095
4095
4095
3767
3194
2719
2384
2112
1869
1649
1463
1327
1239
1204
1232
1279
1363
1470
1505
1510
1502
1480
1449
1447
1359
1349
1388
1415
1500
1522
1555
1588
1638
1648
1678
1698
1727
1741
1771
1778
1793
1864
2093
2534
3199
4071
4095
4095
3921
3307
2787
2405
2111
1842
1623
1429
1296
1204
1200
1253
1338
1436
1533
1535
1535
1520
1488
1411
1397
1379
1381
1397
1460
1518
1531
1575
1594
1616
1645
1653
1675
1691
1718
1733
1829
2096
2597
3235
4054
4095
4095
3735
3175
2721
2381
2096
1862
1649
1461
1312
1219
1207
1222
1273
1341
1490
1500
1498
1485
1460
1405
1335
1351
1344
1373
1415
1486
1502
1535
1586
1594
1629
1641
1673
1701
1717
1725
1741
1774
1815
1998
2371
2933
3759
4095
4095
4095
3541
3008
2592
2268
1999
1775
1555
1374
1238
1171
1167
1209
1280
1398
1482
1495
1478
1472
1450
1455
1410
1424
1402
1429
1455
1481
1531
1535
1580
1630
1647
1671
1719
1725
1760
1773
1790
1808
1874
2096
2533
3157
3967
4095
4095
3957
3337
2828
2448
2128
1891
1680
1477
1307
1226
1201
1242
1319
1393
1499
1535
1522
1518
1491
1444
1383
1367
1381
1399
1436
1511
1535
1579
1609
1623
1639
1648
1665
1681
1708
1737
1830
2114
2607
3275
4055
4095
4095
3689
3122
2667
2331
2058
1826
1616
1424
1296
1203
1187
1229
1286
1395
1493
1517
1503
1485
1463
1436
1379
1355
1372
1379
1424
1511
1534
1563
1589
1614
1661
1666
1676
1695
1720
1730
1761
1842
2105
2599
3296
4095
4095
4095
3859
3235
2736
2370
2096
1842
1625
1436
1294
1214
1197
1227
1277
1355
1471
1511
1511
1488
1468
1447
1378
1360
1391
1410
1469
1503
1528
1535
1585
1600
1601
1636
1659
1741
1927
2359
2916
3669
4095
4095
3712
3223
2768
2399
2108
1871
1655
1456
1296
1221
1183
1200
1266
1343
1467
1491
1509
1486
1479
1463
1443
1430
1439
1425
1424
1456
1477
1497
1535
1559
1629
1795
2167
2686
3270
3793
3851
3511
3101
2704
2352
2098
1844
1658
1439
1289
1207
1187
1196
1265
1383
1489
1529
1554
1535
1520
1507
1508
1483
1487
1485
1502
1514
1535
1562
1586
1617
1650
1719
1910
2330
2887
3569
4045
3999
3573
3056
2661
2324
2046
1809
1605
1434
1310
1238
1259
1296
1371
1488
1535
1533
1526
1502
1474
1391
1377
1390
1394
1457
1532
1535
1569
1590
1610
1625
1667
1668
1711
1808
2071
2559
3268
3978
4095
4055
3530
3043
2633
2287
2057
1821
1608
1409
1282
1216
1202
1241
1313
1413
1491
1494
1494
1475
1449
1439
1360
1368
1379
1449
1513
1535
1577
1589
1605
1641
1661
1685
1702
1721
1744
1836
2115
2619
3291
4016
4095
4095
3552
3038
2633
2313
2055
1819
1598
1435
1290
1231
1232
1280
1328
1439
1511
1527
1523
1505
1490
1479
1456
1445
1449
1475
1481
1519
1535
1574
1611
1638
1680
1712
1714
1731
1755
1786
1888
2143
2621
3323
4053
4095
4095
3680
3117
2622
2289
1983
1761
1535
1379
1266
1237
1260
1334
1399
1515
1557
1535
1530
1490
1457
1392
1392
1401
1424
1470
1525
1557
1580
1607
1630
1648
1670
1679
1702
1707
1742
1766
1867
2145
2631
3282
4011
4095
4075
3575
3047
2634
2305
2035
1808
1600
1426
1302
1246
1253
1259
1347
1443
1523
1525
1521
1520
1477
1471
1405
1395
1414
1440
1509
1535
1571
1595
1632
1664
1697
1698
1719
1738
1750
1774
1805
1920
2201
2674
3275
3869
4095
3866
3453
3001
2629
2334
2096
1887
1678
1499
1388
1319
1318
1371
1418
1487
1581
1535
1575
1525
1507
1447
1429
1457
1437
1431
1519
1571
1581
1616
1648
1670
1693
1721
1731
1745
1764
1786
1808
1810
1866
2112
2559
3170
3868
4095
4095
3678
3169
2736
2430
2148
1930
1726
1535
1423
1358
1347
1381
1438
1533
1601
1603
1578
1559
1488
1440
1424
1418
1434
1439
1458
1526
1535
1602
1629
1642
1678
1680
1714
1708
1728
1753
1760
1774
1835
1978
2365
2928
3667
4095
4095
3938
3389
2924
2535
2235
2000
1808
1599
1447
1344
1286
1308
1350
1429
1535
1567
1584
1535
1520
1491
1406
1397
1406
1404
1431
1503
1535
1554
1598
1623
1623
1663
1679
1682
1699
1744
1735
1767
1798
1957
2366
2929
3725
4095
4095
3976
3379
2873
2502
2186
1930
1699
1501
1350
1266
1248
1287
1386
1500
1572
1597
1584
1535
1505
1435
1414
1390
1387
1403
1415
1493
1522
1571
1575
1616
1610
1627
1662
1675
1675
1705
1786
1964
2436
3088
3921
4095
4095
4023
3435
2891
2500
2184
1911
1677
1487
1312
1217
1174
1196
1264
1327
1447
1477
1483
1437
1424
1346
1313
1302
1285
1299
1342
1393
1446
1470
1517
1529
1568
1584
1610
1619
1638
1658
1685
1717
1873
2268
2871
3728
4095
4095
4095
3888
3270
2753
2386
2100
1836
1594
1379
1231
1136
1104
1145
1200
1262
1379
1392
1392
1377
1344
1314
1249
1248
1259
1270
1340
1408
1435
1447
1498
1519
1563
1573
1606
1620
1647
1663
1709
1734
1846
2162
2730
3523
4095
4095
4095
3895
3264
2752
2366
2047
1803
1579
1360
1219
1154
1136
1184
1259
1379
1445
1487
1470
1453
1443
1367
1345
1316
1334
1351
1389
1436
1475
1510
1533
1553
1594
1604
1621
1615
1622
1646
1696
1767
2056
2517
3184
4033
4095
4095
3699
3136
2640
2288
1968
1727
1507
1329
1225
1165
1159
1226
1317
1463
1520
1535
1511
1514
1495
1429
1394
1397
1401
1419
1511
1535
1590
1606
1623
1639
1651
1685
1702
1714
1766
1948
2368
2931
3728
4095
4095
3803
3242
2754
2393
2075
1838
1610
1408
1264
1179
1173
1227
1310
1452
1520
1559
1574
1535
1508
1446
1403
1408
1413
1429
1530
1564
1596
1599
1633
1643
1667
1664
1680
1693
1744
1928
2351
2943
3767
4095
4095
3951
3329
2813
2427
2114
1879
1643
1445
1299
1199
1161
1170
1232
1313
1429
1463
1487
1489
1472
1441
1431
1408
1424
1416
1424
1459
1488
1523
1535
1584
1616
1654
1679
1720
1713
1750
1769
1789
1921
2258
2793
3501
4095
4095
4095
3554
2995
2598
2275
2000
1768
1582
1401
1265
1197
1198
1211
1279
1377
1455
1501
1515
1509
1484
1463
1469
1471
1467
1478
1493
1535
1559
1581
1607
1653
1648
1744
1737
1765
1785
1798
1795
1829
1856
1847
1971
2229
2700
3337
3994
4095
4095
3615
3113
2693
2343
2091
1845
1643
1456
1344
1260
1260
1260
1326
1430
1518
1559
1584
1589
1556
1535
1555
1534
1533
1533
1535
1575
1598
1622
1662
1693
1725
1743
1735
1783
1810
1799
1859
1840
1921
2114
2519
3025
3663
4048
3995
3582
3119
2706
2383
2108
1847
1648
1474
1341
1287
1282
1339
1407
1521
1607
1633
1618
1611
1602
1586
1583
1587
1570
1579
1600
1600
1635
1667
1695
1729
1754
1751
1776
1805
1805
1833
1909
2119
2512
3008
3643
3979
3926
3566
3115
2699
2375
2086
1838
1636
1469
1351
1273
1257
1299
1386
1494
1568
1605
1620
1599
1610
1584
1581
1581
1567
1581
1591
1614
1648
1674
1697
1718
1744
1771
1799
1799
1824
1842
1849
1872
1879
1951
2177
2559
3152
3786
4095
4053
3632
3185
2747
2403
2119
1873
1680
1510
1373
1296
1279
1301
1367
1446
1553
1597
1619
1642
1640
1632
1616
1600
1587
1613
1630
1626
1643
1685
1705
1721
1753
1758
1802
1807
1812
1830
1847
1872
1886
1972
2213
2659
3182
3770
4048
3907
3486
3027
2644
2320
2046
1824
1614
1446
1346
1290
1297
1330
1394
1517
1587
1623
1625
1623
1638
1627
1629
1597
1602
1605
1621
1649
1659
1707
1710
1724
1762
1794
1824
1830
1843
1849
1873
1878
1898
1908
1955
2096
2411
2892
3472
3950
4043
3728
3322
2893
2544
2255
1989
1775
1593
1446
1355
1316
1318
1364
1423
1554
1603
1651
1648
1657
1619
1627
1617
1605
1622
1615
1643
1648
1680
1693
1731
1743
1770
1802
1814
1840
1849
1875
1875
1879
1924
1938
2062
2355
2799
3344
3837
3984
3751
3343
2906
2585
2261
2017
1819
1633
1488
1381
1328
1352
1395
1463
1565
1616
1635
1658
1621
1641
1630
1631
1613
1607
1629
1630
1666
1685
1713
1739
1767
1791
1808
1815
1837
1846
1859
1872
1904
1970
2160
2527
3030
3632
4000
3931
3581
3147
2759
2403
2139
1885
1710
1524
1404
1338
1307
1350
1389
1465
1583
1616
1642
1638
1631
1629
1615
1627
1627
1606
1633
1642
1659
1690
1715
1743
1782
1807
1810
1837
1853
1883
1883
1883
1913
1969
2193
2558
3025
3556
3850
3790
3445
3051
2717
2391
2144
1904
1739
1559
1441
1382
1358
1387
1429
1503
1615
1643
1648
1662
1659
1637
1627
1641
1616
1627
1643
1654
1675
1711
1718
1769
1771
1786
1826
1850
1840
1869
1885
1905
1902
1936
2047
2329
2743
3239
3680
3795
3633
3232
2864
2559
2279
2064
1856
1680
1535
1456
1392
1392
1425
1473
1574
1654
1668
1674
1667
1663
1651
1643
1641
1638
1643
1662
1687
1705
1712
1749
1776
1763
1808
1825
1845
1873
1872
1888
1918
1919
1971
2164
2478
2938
3421
3718
3729
3445
3088
2726
2447
2177
1943
1757
1611
1476
1408
1392
1397
1456
1510
1637
1659
1686
1691
1677
1677
1677
1641
1649
1653
1665
1680
1699
1722
1767
1759
1785
1806
1846
1856
1861
1871
1872
1917
1915
1955
2067
2357
2770
3279
3674
3818
3598
3203
2822
2494
2223
1969
1796
1642
1517
1437
1385
1382
1427
1488
1616
1662
1694
1705
1712
1680
1686
1675
1675
1674
1672
1711
1697
1729
1744
1758
1776
1775
1823
1815
1923
2173
2553
2998
3415
3583
3430
3119
2768
2485
2199
1966
1791
1618
1495
1408
1357
1358
1392
1465
1572
1631
1664
1678
1666
1670
1664
1680
1658
1678
1686
1703
1703
1727
1735
1758
1777
1819
1943
2224
2630
3049
3423
3516
3349
3047
2749
2448
2203
1983
1776
1616
1456
1409
1373
1378
1424
1488
1619
1674
1712
1723
1725
1701
1699
1706
1713
1692
1710
1712
1727
1754
1759
1791
1851
1998
2290
2720
3135
3473
3536
3333
3023
2709
2401
2164
1939
1747
1582
1447
1402
1383
1415
1499
1605
1667
1680
1673
1699
1649
1648
1633
1633
1591
1615
1637
1663
1659
1680
1687
1730
1791
2001
2384
2887
3483
3981
4001
3685
3280
2846
2518
2262
2011
1795
1599
1442
1358
1311
1309
1360
1405
1498
1554
1535
1565
1514
1415
1379
1386
1389
1410
1494
1518
1535
1535
1589
1627
1648
1666
1680
1782
1998
2445
3057
3861
4095
4095
3934
3436
2913
2559
2245
2000
1769
1529
1353
1251
1198
1184
1232
1293
1419
1469
1475
1463
1451
1418
1328
1308
1328
1357
1360
1453
1486
1499
1535
1569
1584
1602
1613
1637
1645
1679
1704
1745
1974
2346
2913
3899
4095
4095
4095
3731
3147
2673
2320
1999
1744
1520
1313
1209
1131
1138
1185
1255
1357
1430
1456
1461
1423
1411
1402
1376
1311
1298
1300
1344
1434
1468
1491
1509
1535
1535
1557
1584
1594
1630
1715
1949
2441
3187
4095
4095
4095
4095
3788
3126
2646
2306
1950
1678
1395
1222
1105
1082
1088
1166
1238
1360
1365
1390
1333
1283
1202
1201
1197
1181
1193
1203
1312
1350
1350
1378
1409
1408
1424
1451
1465
1509
1623
1921
2477
3345
4095
4095
4095
4095
3715
3052
2559
2203
1872
1579
1326
1117
1010
904
943
985
1075
1175
1249
1244
1246
1222
1197
1173
1171
1169
1163
1186
1222
1254
1303
1354
1382
1424
1456
1473
1523
1535
1591
1718
2039
2595
3392
4095
4095
4095
3806
3210
2703
2322
1989
1709
1453
1245
1104
1051
1047
1115
1205
1349
1398
1425
1433
1421
1379
1361
1338
1294
1327
1392
1460
1466
1506
1520
1535
1535
1535
1584
1566
1595
1693
1991
2526
3281
4095
4095
4095
4013
3363
2800
2402
2075
1810
1553
1339
1189
1126
1093
1137
1226
1322
1392
1391
1347
1296
1205
1168
1168
1163
1165
1194
1253
1299
1337
1376
1396
1427
1457
1491
1521
1535
1555
1582
1607
1675
1883
2367
3081
4095
4095
4095
4095
3654
2981
2538
2184
1931
1711
1509
1344
1227
1162
1155
1182
1244
1296
1376
1392
1374
1327
1223
1221
1213
1209
1225
1243
1314
1343
1362
1415
1419
1461
1491
1525
1568
1607
1619
1646
1655
1680
1712
1771
1954
2375
3017
3889
4095
4095
3919
3281
2761
2369
2046
1795
1599
1433
1289
1216
1179
1190
1248
1314
1439
1489
1488
1485
1472
1455
1441
1427
1431
1447
1456
1478
1494
1525
1575
1598
1622
1655
1700
1712
1743
1758
1771
1803
1819
1895
2132
2486
2960
3467
3724
3600
3195
2805
2473
2199
1936
1728
1562
1425
1360
1349
1371
1446
1564
1642
1673
1667
1667
1620
1621
1583
1529
1534
1569
1584
1652
1677
1698
1726
1748
1760
1779
1788
1808
1830
1939
2191
2605
3094
3543
3712
3497
3121
2760
2435
2144
1905
1691
1515
1400
1358
1364
1411
1491
1610
1666
1680
1691
1665
1619
1600
1531
1535
1535
1595
1582
1646
1663
1679
1697
1712
1744
1840
2071
2465
2959
3456
3712
3557
3185
2820
2481
2169
1934
1705
1521
1381
1295
1261
1295
1379
1475
1573
1616
1633
1645
1617
1616
1607
1585
1580
1603
1614
1600
1625
1616
1641
1667
1729
1889
2259
2703
3264
3583
3637
3333
2971
2620
2320
2035
1791
1584
1419
1326
1307
1327
1395
1523
1635
1657
1668
1666
1617
1601
1527
1519
1514
1529
1523
1535
1603
1634
1650
1658
1693
1830
2160
2690
3353
3966
4095
3795
3312
2835
2461
2166
1910
1689
1475
1338
1249
1221
1264
1347
1439
1519
1535
1523
1516
1487
1381
1367
1364
1369
1398
1437
1489
1517
1509
1530
1558
1587
1693
1983
2458
3113
3833
4095
4038
3554
3062
2642
2317
2047
1808
1600
1394
1269
1207
1194
1238
1311
1375
1441
1457
1450
1421
1387
1312
1293
1279
1299
1315
1376
1424
1457
1485
1495
1535
1535
1562
1599
1606
1653
1679
1813
2139
2659
3423
4095
4095
4095
3709
3155
2690
2351
2070
1833
1600
1413
1257
1169
1158
1187
1254
1307
1392
1407
1417
1389
1367
1313
1284
1273
1276
1298
1371
1404
1452
1469
1489
1531
1565
1600
1635
1667
1678
1718
1727
1731
1751
1791
1840
1966
2342
2883
3658
4095
4095
3997
3459
2959
2545
2237
1971
1741
1520
1379
1293
1232
1270
1310
1411
1499
1535
1529
1514
1491
1461
1394
1385
1385
1397
1419
1499
1519
1535
1590
1613
1645
1649
1673
1673
1697
1735
1731
1746
1791
1921
2239
2705
3315
3898
4095
3840
3372
2925
2545
2227
1979
1758
1565
1408
1296
1262
1285
1346
1421
1533
1584
1583
1535
1529
1483
1418
1408
1424
1435
1446
1525
1566
1584
1609
1642
1657
1697
1712
1713
1736
1743
1764
1776
1812
1950
2280
2766
3393
3937
4095
3802
3312
2887
2526
2227
2001
1795
1596
1431
1325
1293
1298
1328
1408
1491
1554
1558
1535
1530
1520
1493
1424
1407
1423
1441
1513
1561
1600
1613
1634
1677
1686
1705
1733
1751
1783
1791
1814
1819
1836
1853
1915
2037
2390
2854
3478
3984
4055
3767
3348
2868
2535
2255
1993
1839
1625
1458
1350
1302
1328
1347
1419
1534
1591
1593
1597
1569
1559
1558
1535
1527
1524
1533
1535
1583
1593
1626
1658
1675
1693
1734
1760
1774
1782
1813
1810
1830
1843
1872
1930
2099
2477
2960
3501
3999
3954
3569
3200
2743
2403
2163
1936
1744
1535
1424
1342
1322
1341
1380
1463
1581
1613
1611
1600
1584
1569
1570
1535
1487
1486
1520
1571
1591
1633
1634
1680
1710
1743
1755
1759
1795
1821
1817
1835
1865
1868
1882
1959
2192
2601
3107
3653
3987
3851
3474
3054
2703
2388
2127
1893
1698
1535
1413
1337
1333
1342
1405
1491
1581
1622
1615
1611
1599
1579
1579
1561
1555
1578
1566
1584
1606
1634
1657
1690
1713
1730
1751
1784
1793
1829
1830
1851
1872
1889
1910
1981
2205
2595
3081
3609
3879
3726
3370
2983
2629
2323
2087
1893
1695
1526
1438
1367
1382
1412
1473
1584
1658
1670
1664
1650
1648
1625
1616
1559
1535
1555
1597
1648
1681
1711
1707
1739
1758
1767
1808
1795
1802
1819
1834
1857
1961
2212
2645
3135
3664
3877
3684
3301
2907
2559
2282
2058
1845
1678
1494
1383
1339
1337
1382
1442
1562
1621
1626
1643
1618
1601
1605
1577
1588
1584
1578
1590
1602
1650
1664
1692
1712
1739
1759
1773
1809
1803
1821
1846
1891
2044
2389
2874
3445
3894
3941
3667
3235
2857
2508
2233
1996
1808
1616
1456
1374
1330
1313
1360
1425
1521
1591
1597
1594
1589
1595
1566
1562
1531
1556
1557
1566
1589
1611
1637
1662
1695
1727
1751
1757
1785
1815
1814
1840
1845
1881
1923
2112
2449
2955
3521
3963
3985
3666
3234
2837
2512
2249
2004
1809
1616
1475
1393
1342
1351
1377
1449
1533
1595
1603
1590
1598
1584
1535
1562
1535
1529
1535
1535
1587
1599
1638
1667
1680
1716
1735
1748
1776
1798
1793
1817
1837
1861
1948
2198
2633
3156
3710
3984
3863
3504
3066
2703
2400
2128
1915
1712
1535
1409
1344
1319
1344
1405
1457
1567
1607
1601
1582
1570
1554
1535
1535
1505
1527
1535
1535
1575
1605
1623
1657
1691
1728
1734
1760
1772
1785
1803
1823
1833
1872
1970
2219
2635
3184
3738
4048
3884
3477
3071
2704
2395
2147
1935
1735
1571
1417
1344
1323
1326
1370
1444
1535
1572
1585
1571
1575
1562
1535
1524
1520
1521
1531
1535
1581
1600
1627
1654
1698
1712
1738
1770
1784
1814
1831
1855
1863
1871
1887
1924
2058
2347
2810
3392
3921
3994
3760
3327
2918
2559
2279
2032
1830
1653
1483
1392
1339
1345
1363
1439
1535
1606
1606
1600
1597
1584
1565
1535
1535
1535
1535
1557
1590
1617
1623
1657
1703
1711
1734
1757
1783
1783
1799
1833
1840
1887
1973
2257
2704
3242
3759
3984
3762
3381
2960
2621
2311
2067
1847
1669
1491
1387
1334
1309
1343
1402
1477
1568
1569
1599
1585
1568
1535
1535
1532
1533
1523
1535
1583
1589
1613
1651
1681
1711
1735
1785
1779
1809
1835
1835
1875
1872
1891
1969
2177
2583
3071
3632
3997
3901
3550
3117
2737
2409
2146
1906
1716
1559
1427
1345
1339
1341
1391
1455
1570
1612
1627
1613
1627
1595
1572
1568
1572
1569
1565
1586
1620
1643
1685
1702
1719
1731
1759
1787
1810
1810
1825
1843
1858
1904
2038
2370
2813
3357
3806
3915
3658
3257
2867
2519
2248
2007
1821
1642
1485
1372
1333
1316
1368
1417
1522
1600
1611
1627
1621
1616
1606
1585
1583
1579
1584
1594
1617
1645
1674
1687
1722
1739
1761
1791
1810
1822
1866
1859
1871
1886
1922
1981
2209
2591
3114
3658
3952
3847
3492
3056
2675
2375
2125
1899
1697
1559
1403
1341
1334
1360
1414
1502
1599
1637
1644
1643
1619
1607
1614
1606
1586
1595
1607
1625
1639
1662
1683
1712
1738
1761
1796
1815
1828
1840
1861
1882
1878
1891
1933
2017
2291
2707
3227
3717
3917
3746
3356
2977
2608
2327
2069
1869
1683
1520
1409
1369
1367
1391
1437
1527
1606
1634
1649
1637
1633
1616
1607
1610
1606
1602
1607
1633
1655
1680
1689
1712
1754
1776
1783
1805
1831
1856
1863
1877
1890
1906
1918
1937
1977
2131
2452
2917
3471
3895
3958
3668
3266
2869
2513
2242
2004
1817
1645
1488
1393
1354
1351
1378
1450
1558
1620
1648
1647
1648
1635
1623
1615
1616
1616
1616
1621
1631
1655
1670
1701
1712
1750
1774
1808
1827
1830
1858
1869
1878
1877
1903
1955
2094
2399
2862
3408
3839
3899
3626
3216
2823
2487
2223
1987
1792
1599
1465
1385
1342
1359
1409
1475
1616
1654
1659
1677
1651
1650
1625
1614
1611
1615
1616
1648
1680
1691
1725
1757
1775
1793
1809
1823
1840
1872
1883
1904
1909
2009
2291
2736
3346
4023
4095
4095
3729
3205
2768
2423
2142
1891
1696
1501
1364
1280
1257
1279
1330
1386
1473
1520
1531
1519
1511
1509
1505
1485
1472
1485
1488
1496
1523
1569
1595
1616
1638
1680
1686
1719
1727
1750
1776
1820
1924
2211
2686
3303
3891
4095
3941
3520
3040
2670
2367
2119
1898
1694
1515
1383
1289
1237
1258
1294
1351
1472
1506
1554
1525
1535
1535
1504
1493
1497
1511
1520
1554
1564
1591
1627
1637
1663
1699
1712
1734
1755
1777
1858
2083
2449
2928
3499
3856
3797
3448
3057
2699
2374
2115
1888
1697
1535
1418
1349
1329
1334
1399
1461
1559
1600
1590
1587
1568
1535
1559
1522
1534
1531
1535
1584
1602
1626
1652
1680
1703
1731
1735
1755
1764
1792
1859
2089
2465
2965
3573
3883
3856
3497
3085
2724
2421
2176
1968
1792
1617
1463
1371
1326
1326
1369
1410
1473
1535
1575
1535
1533
1530
1509
1521
1520
1522
1525
1535
1570
1600
1622
1646
1653
1690
1701
1719
1738
1760
1805
1947
2276
2742
3371
3920
4072
3824
3409
2959
2613
2336
2113
1899
1701
1521
1391
1306
1272
1287
1323
1390
1469
1506
1520
1503
1520
1490
1478
1483
1483
1474
1469
1489
1520
1535
1605
1598
1647
1664
1675
1691
1714
1742
1804
1998
2362
2895
3541
4089
4095
3807
3342
2899
2547
2268
2038
1822
1614
1442
1328
1286
1261
1297
1341
1389
1483
1481
1484
1462
1440
1429
1414
1425
1413
1430
1445
1474
1519
1535
1583
1621
1646
1666
1683
1705
1732
1778
1920
2254
2739
3369
4016
4095
3938
3450
2963
2649
2335
2078
1859
1648
1475
1360
1286
1259
1285
1329
1402
1479
1498
1505
1504
1467
1471
1457
1456
1461
1472
1498
1500
1529
1565
1593
1599
1627
1641
1680
1741
1904
2265
2832
3537
4095
4095
3999
3471
2954
2559
2260
1993
1773
1555
1377
1251
1199
1215
1230
1309
1365
1427
1435
1424
1408
1389
1315
1295
1296
1312
1348
1425
1474
1497
1510
1554
1569
1610
1637
1657
1667
1707
1727
1783
1990
2409
3013
3854
4095
4095
4095
3600
3055
2641
2299
2032
1814
1579
1392
1251
1189
1178
1191
1239
1313
1380
1411
1395
1392
1360
1346
1327
1347
1331
1374
1361
1396
1425
1465
1502
1535
1589
1605
1649
1682
1697
1734
1739
1757
1790
1872
2096
2549
3200
4017
4095
4095
4021
3471
2926
2541
2239
1971
1755
1535
1386
1251
1199
1198
1239
1304
1381
1459
1473
1456
1446
1430
1413
1431
1414
1409
1395
1418
1455
1498
1520
1579
1594
1590
1627
1658
1677
1684
1714
1747
1776
1971
2347
2921
3696
4095
4095
3979
3439
2924
2559
2239
1970
1751
1535
1375
1245
1198
1195
1232
1280
1345
1424
1440
1447
1427
1406
1408
1389
1398
1408
1426
1447
1488
1513
1562
1584
1616
1666
1667
1680
1738
1717
1765
1779
1815
1827
1921
2153
2630
3297
4061
4095
4095
3825
3289
2800
2468
2163
1923
1713
1535
1351
1254
1209
1213
1267
1332
1427
1479
1509
1492
1484
1489
1463
1463
1456
1473
1467
1495
1515
1535
1593
1609
1645
1675
1689
1712
1744
1763
1775
1787
1827
1919
2192
2688
3442
4095
4095
4095
3824
3215
2746
2375
2061
1808
1596
1399
1264
1209
1178
1200
1285
1363
1463
1499
1482
1475
1463
1442
1410
1401
1424
1423
1424
1462
1481
1510
1570
1589
1626
1667
1683
1703
1715
1733
1770
1777
1796
1862
2034
2468
3071
3878
4095
4095
4095
3481
2939
2533
2201
1942
1715
1515
1344
1246
1198
1182
1218
1287
1395
1478
1477
1492
1466
1487
1456
1447
1455
1456
1472
1467
1491
1513
1535
1586
1629
1663
1685
1712
1730
1754
1758
1776
1797
1906
2202
2686
3393
4095
4095
4095
3583
3089
2655
2327
2031
1808
1611
1438
1314
1233
1209
1247
1293
1383
1475
1515
1531
1535
1532
1509
1506
1500
1511
1495
1532
1535
1578
1584
1630
1648
1679
1708
1742
1738
1751
1775
1797
1823
1961
2307
2853
3555
4095
4095
3942
3458
2945
2512
2194
1936
1713
1530
1375
1242
1217
1226
1264
1355
1476
1511
1534
1535
1506
1495
1487
1483
1474
1475
1506
1505
1531
1557
1580
1619
1662
1665
1718
1727
1744
1760
1767
1781
1810
1856
2065
2445
3024
3721
4095
4095
3870
3325
2851
2486
2173
1933
1717
1526
1387
1280
1226
1232
1290
1343
1451
1502
1513
1521
1520
1506
1499
1488
1485
1514
1496
1518
1535
1579
1612
1635
1679
1701
1712
1744
1792
1792
1811
1834
1857
1871
1891
1915
2057
2423
2942
3626
4095
4095
3868
3376
2915
2541
2234
1979
1765
1570
1417
1330
1289
1277
1331
1404
1503
1567
1571
1584
1573
1535
1535
1522
1526
1523
1535
1566
1578
1601
1626
1654
1685
1723
1726
1749
1779
1790
1792
1805
1888
2091
2482
3021
3626
4007
3952
3621
3167
2756
2411
2142
1895
1712
1523
1391
1298
1280
1273
1337
1392
1501
1520
1554
1568
1535
1514
1520
1509
1494
1503
1507
1535
1595
1600
1655
1679
1680
1718
1746
1776
1778
1796
1810
1824
1839
1873
1934
2191
2624
3179
3811
4095
4002
3555
3120
2719
2394
2121
1907
1707
1525
1410
1331
1297
1302
1353
1421
1535
1594
1601
1614
1615
1601
1584
1584
1568
1577
1584
1603
1616
1658
1665
1679
1698
1731
1731
1771
1777
1782
1815
1845
1856
1879
2034
2357
2870
3536
4095
4095
3920
3377
2903
2512
2223
1949
1741
1520
1364
1259
1225
1233
1281
1349
1463
1522
1533
1535
1535
1535
1521
1515
1517
1509
1520
1535
1568
1591
1611
1613
1680
1709
1733
1765
1761
1786
1807
1824
1845
1856
1900
2010
2314
2800
3415
3979
4095
3952
3485
2976
2605
2278
2013
1810
1633
1461
1339
1297
1264
1296
1359
1445
1520
1535
1535
1557
1569
1529
1535
1523
1532
1555
1535
1584
1600
1612
1653
1695
1727
1728
1776
1775
1795
1822
1835
1857
1830
1888
1968
2227
2655
3216
3811
4074
3910
3489
3035
2672
2353
2065
1845
1680
1511
1382
1301
1290
1329
1377
1430
1561
1586
1608
1602
1609
1599
1583
1559
1570
1570
1601
1606
1629
1641
1680
1701
1739
1739
1790
1800
1808
1839
1841
1854
1874
1911
2091
2422
2935
3533
4014
4063
3665
3211
2791
2439
2137
1904
1715
1531
1394
1299
1285
1309
1375
1434
1562
1599
1619
1611
1611
1578
1585
1562
1559
1567
1562
1585
1616
1642
1664
1686
1713
1730
1751
1782
1791
1823
1817
1825
1862
1918
2135
2529
3083
3712
4076
4009
3600
3149
2726
2408
2126
1899
1713
1535
1400
1327
1279
1296
1354
1402
1526
1563
1597
1589
1579
1574
1559
1555
1557
1573
1584
1589
1597
1648
1663
1680
1703
1731
1771
1762
1777
1799
1808
1840
1872
1961
2203
2645
3209
3830
4095
3927
3461
3024
2631
2325
2071
1863
1670
1520
1375
1309
1281
1308
1360
1431
1535
1585
1604
1602
1595
1589
1595
1567
1577
1585
1584
1607
1631
1659
1679
1693
1731
1753
1776
1789
1803
1814
1838
1859
1985
2291
2774
3312
3818
3979
3693
3262
2839
2499
2192
1965
1770
1605
1452
1354
1302
1328
1360
1434
1557
1590
1611
1594
1600
1595
1581
1586
1559
1562
1561
1600
1600
1632
1653
1694
1699
1739
1761
1786
1786
1814
1817
1833
1861
1911
2083
2438
2941
3533
3952
3919
3607
3183
2791
2473
2199
1951
1761
1591
1445
1350
1307
1302
1344
1422
1506
1573
1621
1584
1593
1587
1570
1600
1535
1573
1567
1601
1609
1623
1664
1696
1717
1739
1747
1774
1802
1816
1825
1852
1859
1904
2047
2383
2864
3433
3888
3965
3683
3261
2842
2525
2214
1988
1789
1618
1462
1360
1306
1307
1343
1408
1527
1588
1584
1600
1609
1587
1593
1591
1573
1587
1579
1623
1626
1650
1695
1690
1734
1755
1761
1781
1808
1825
1846
1857
1893
1926
2122
2486
3007
3615
4017
3985
3583
3169
2735
2394
2118
1886
1690
1526
1394
1317
1305
1315
1390
1482
1570
1623
1626
1616
1623
1595
1574
1579
1585
1578
1600
1601
1631
1646
1664
1712
1713
1746
1767
1776
1813
1808
1829
1857
1933
2128
2512
3026
3645
3984
3950
3525
3094
2701
2367
2107
1872
1710
1520
1395
1318
1279
1309
1354
1408
1520
1593
1600
1582
1585
1581
1559
1555
1535
1554
1562
1589
1600
1637
1679
1696
1716
1756
1769
1791
1808
1821
1839
1847
1872
1927
2162
2559
3091
3753
4043
3984
3546
3120
2713
2388
2117
1886
1706
1520
1392
1303
1296
1322
1350
1401
1534
1597
1602
1615
1613
1601
1599
1594
1577
1595
1607
1623
1631
1652
1687
1707
1739
1745
1767
1790
1794
1818
1852
1884
2001
2320
2790
3373
3893
3952
3713
3271
2845
2496
2208
1968
1776
1601
1439
1334
1309
1307
1330
1387
1511
1562
1614
1616
1606
1619
1600
1593
1593
1587
1601
1615
1647
1680
1697
1713
1752
1765
1795
1795
1815
1839
1842
1899
2080
2427
2935
3568
4016
4031
3663
3216
2777
2433
2129
1887
1688
1498
1373
1314
1265
1322
1383
1505
1584
1620
1633
1620
1626
1600
1585
1571
1578
1586
1595
1606
1631
1650
1674
1678
1697
1723
1743
1761
1787
1811
1948
2264
2741
3359
3927
4095
3831
3337
2891
2513
2210
1949
1737
1569
1408
1312
1247
1262
1302
1375
1495
1533
1584
1593
1584
1585
1568
1559
1533
1535
1554
1573
1585
1618
1651
1669
1703
1717
1746
1779
1767
1779
1819
1834
1929
2190
2646
3247
3936
4095
4002
3504
3030
2641
2311
2022
1806
1611
1439
1315
1266
1252
1275
1342
1439
1523
1571
1606
1588
1577
1563
1579
1568
1559
1591
1602
1584
1631
1648
1667
1712
1728
1755
1776
1792
1787
1827
1840
1900
2091
2480
3054
3770
4095
4095
3691
3184
2743
2383
2089
1843
1643
1457
1333
1243
1225
1267
1335
1422
1513
1566
1566
1584
1565
1561
1559
1535
1535
1535
1566
1575
1611
1625
1661
1679
1707
1743
1755
1777
1781
1801
1816
1894
2087
2515
3083
3731
4095
4025
3607
3122
2711
2368
2083
1860
1639
1470
1328
1251
1232
1251
1311
1419
1526
1559
1591
1605
1594
1585
1571
1567
1567
1575
1584
1609
1643
1648
1679
1717
1731
1746
1757
1782
1789
1823
1915
2182
2631
3246
3895
4095
3963
3463
2992
2559
2256
1977
1744
1562
1392
1274
1230
1237
1296
1399
1497
1579
1597
1611
1594
1579
1570
1557
1535
1569
1562
1575
1587
1648
1672
1687
1705
1728
1744
1776
1791
1807
1860
2065
2459
3010
3712
4095
4095
3722
3186
2754
2411
2099
1869
1648
1457
1328
1254
1228
1259
1305
1393
1494
1535
1535
1555
1555
1535
1531
1562
1519
1535
1569
1584
1613
1639
1658
1676
1702
1723
1738
1760
1797
1821
1971
2279
2794
3433
4015
4095
3847
3363
2879
2511
2205
1933
1712
1504
1373
1287
1233
1234
1295
1380
1488
1535
1586
1581
1572
1573
1559
1534
1535
1558
1566
1584
1614
1638
1658
1681
1709
1719
1735
1760
1786
1830
1945
2220
2704
3326
3917
4095
3879
3408
2919
2541
2219
1949
1711
1526
1360
1275
1232
1249
1284
1357
1468
1535
1571
1575
1567
1563
1535
1535
1533
1554
1570
1591
1579
1619
1648
1680
1712
1729
1756
1727
1789
1799
1831
1929
2208
2665
3301
3938
4095
3969
3502
3011
2608
2257
2007
1756
1568
1403
1312
1255
1264
1295
1379
1479
1535
1585
1594
1589
1584
1566
1558
1563
1559
1584
1603
1603
1623
1670
1690
1689
1722
1722
1754
1771
1862
2096
2513
3094
3687
3994
3879
3449
2992
2608
2295
2016
1795
1593
1434
1306
1248
1246
1292
1365
1458
1535
1559
1584
1579
1562
1554
1535
1535
1535
1535
1584
1599
1635
1653
1676
1714
1725
1738
1749
1769
1823
1936
2213
2698
3289
3909
4071
3843
3397
2922
2551
2262
1983
1770
1574
1415
1328
1264
1262
1299
1392
1477
1525
1571
1577
1567
1580
1535
1562
1565
1535
1578
1585
1611
1617
1657
1679
1716
1728
1741
1749
1776
1807
1904
2192
2635
3229
3891
4095
3888
3433
2964
2587
2269
2021
1780
1606
1431
1306
1257
1244
1292
1362
1438
1507
1575
1571
1569
1535
1519
1515
1520
1516
1531
1535
1583
1601
1639
1650
1696
1703
1718
1740
1757
1779
1812
1955
2290
2768
3394
3958
4095
3830
3389
2896
2538
2221
1959
1733
1534
1397
1303
1246
1257
1310
1390
1495
1535
1566
1567
1578
1555
1535
1535
1535
1561
1566
1584
1616
1627
1651
1667
1722
1706
1731
1749
1782
1901
2157
2614
3199
3787
4039
3861
3397
2966
2559
2247
1994
1744
1559
1394
1301
1246
1263
1323
1393
1510
1581
1581
1586
1578
1562
1535
1523
1533
1533
1555
1561
1581
1607
1615
1637
1650
1666
1689
1712
1739
1815
2092
2548
3248
4013
4095
4095
3638
3089
2659
2313
2047
1797
1600
1418
1306
1243
1236
1281
1369
1486
1520
1558
1574
1535
1531
1523
1503
1520
1506
1524
1529
1535
1582
1584
1603
1621
1648
1688
1825
2183
2693
3348
3971
4095
3793
3275
2812
2450
2160
1907
1685
1505
1327
1222
1184
1165
1244
1308
1424
1485
1503
1516
1488
1479
1488
1463
1459
1463
1469
1501
1520
1535
1573
1590
1651
1789
2096
2613
3229
3844
4053
3792
3316
2875
2486
2194
1950
1719
1509
1344
1237
1172
1178
1223
1277
1391
1441
1477
1477
1501
1461
1463
1471
1456
1458
1494
1519
1518
1533
1571
1605
1643
1652
1741
1975
2417
3007
3713
4095
4039
3600
3123
2699
2350
2075
1833
1596
1399
1287
1202
1177
1219
1295
1399
1467
1489
1517
1500
1501
1478
1467
1452
1456
1483
1485
1519
1535
1566
1594
1615
1639
1662
1697
1741
1905
2304
2874
3664
4095
4095
3920
3377
2867
2470
2151
1867
1645
1426
1284
1200
1168
1173
1245
1317
1443
1478
1473
1483
1475
1463
1442
1427
1443
1446
1451
1495
1526
1558
1575
1610
1629
1658
1677
1689
1712
1744
1783
1881
2219
2733
3469
4095
4095
4095
3679
3095
2643
2293
2014
1762
1566
1335
1231
1174
1169
1214
1260
1365
1452
1502
1499
1493
1485
1472
1471
1457
1471
1476
1489
1520
1555
1591
1616
1646
1663
1696
1723
1746
1740
1770
1791
1818
1955
2320
2877
3632
4095
4095
3995
3421
2908
2511
2196
1920
1685
1472
1318
1250
1214
1227
1294
1360
1482
1520
1535
1535
1520
1520
1499
1486
1489
1495
1509
1535
1568
1584
1616
1645
1667
1705
1730
1733
1754
1773
1791
1861
2029
2444
2991
3710
4095
4095
3799
3285
2819
2457
2145
1897
1659
1471
1310
1231
1201
1215
1286
1343
1462
1520
1523
1525
1516
1505
1514
1493
1504
1491
1529
1535
1533
1590
1629
1678
1693
1689
1738
1757
1770
1801
1805
1825
1840
1915
2125
2523
3127
3847
4095
4095
3767
3245
2796
2431
2133
1871
1641
1466
1341
1247
1221
1257
1322
1411
1507
1535
1563
1570
1557
1535
1533
1524
1535
1555
1535
1577
1615
1629
1657
1718
1707
1725
1747
1766
1782
1803
1807
1889
2092
2512
3096
3809
4095
4095
3728
3177
2721
2358
2065
1807
1596
1412
1294
1207
1204
1250
1319
1429
1520
1535
1570
1561
1535
1522
1535
1520
1520
1526
1535
1574
1596
1639
1648
1703
1715
1727
1758
1763
1808
1815
1807
1839
1937
2221
2715
3359
4053
4095
4095
3638
3139
2691
2321
2025
1773
1581
1386
1249
1201
1205
1221
1309
1413
1495
1535
1535
1535
1535
1527
1521
1531
1514
1520
1535
1566
1584
1631
1648
1680
1709
1735
1745
1771
1794
1808
1821
1825
1847
1918
2089
2465
3055
3792
4095
4095
3919
3391
2844
2471
2166
1904
1684
1466
1345
1243
1205
1231
1283
1362
1498
1567
1583
1568
1570
1535
1535
1527
1525
1535
1535
1579
1593
1610
1630
1683
1699
1711
1730
1744
1770
1776
1808
1851
2010
2387
2918
3664
4095
4095
3890
3386
2863
2478
2169
1906
1680
1473
1330
1227
1168
1217
1287
1360
1479
1521
1557
1565
1563
1535
1532
1513
1525
1511
1535
1568
1595
1604
1638
1658
1701
1731
1746
1744
1747
1783
1808
1840
1982
2339
2841
3506
4095
4095
3927
3452
2947
2549
2240
1974
1751
1533
1365
1286
1243
1239
1283
1334
1451
1505
1534
1535
1535
1555
1522
1535
1507
1519
1535
1535
1584
1598
1631
1643
1694
1707
1732
1741
1762
1776
1783
1802
1819
1877
2022
2345
2870
3599
4095
4095
4044
3509
3001
2602
2272
2000
1773
1535
1383
1286
1234
1228
1253
1335
1440
1500
1522
1527
1525
1535
1502
1505
1483
1484
1498
1518
1535
1569
1611
1635
1650
1656
1689
1728
1733
1751
1779
1787
1810
1827
1846
1914
2128
2557
3172
3897
4095
4095
3911
3391
2896
2531
2207
1961
1712
1504
1341
1234
1198
1226
1254
1316
1419
1489
1514
1501
1502
1511
1498
1488
1482
1490
1501
1535
1553
1575
1598
1626
1661
1701
1712
1725
1754
1771
1777
1799
1831
1826
1851
1970
2206
2673
3314
4045
4095
4095
3769
3233
2793
2416
2141
1883
1649
1456
1310
1239
1213
1232
1281
1349
1461
1491
1507
1514
1490
1481
1476
1472
1463
1478
1488
1525
1527
1561
1594
1632
1664
1659
1695
1714
1765
1765
1778
1790
1813
1871
2041
2399
2939
3719
4095
4095
4095
3577
3057
2640
2303
2025
1781
1561
1382
1247
1201
1168
1219
1271
1370
1456
1484
1491
1486
1474
1481
1459
1459
1453
1474
1495
1507
1535
1584
1594
1617
1664
1678
1709
1713
1744
1759
1781
1811
1821
1855
1943
2123
2550
3156
3924
4095
4095
3954
3405
2886
2507
2201
1949
1710
1494
1335
1248
1200
1205
1247
1304
1425
1489
1498
1499
1505
1510
1489
1485
1486
1488
1499
1527
1535
1575
1598
1618
1651
1680
1701
1723
1749
1757
1768
1783
1800
1834
1859
1991
2295
2835
3492
4095
4095
4095
3669
3146
2681
2329
2026
1790
1570
1390
1277
1200
1190
1232
1300
1418
1479
1501
1520
1497
1482
1466
1462
1459
1466
1478
1477
1511
1525
1555
1595
1618
1644
1687
1687
1711
1744
1758
1763
1777
1813
1872
2075
2505
3117
3929
4095
4095
4080
3536
2989
2559
2237
1949
1713
1517
1333
1225
1162
1141
1187
1248
1375
1443
1466
1478
1473
1456
1456
1447
1442
1453
1460
1462
1501
1534
1554
1585
1615
1639
1662
1691
1721
1727
1751
1776
1823
1923
2218
2707
3393
4095
4095
4095
3728
3163
2695
2325
2031
1776
1570
1377
1263
1197
1181
1216
1289
1402
1494
1505
1520
1520
1505
1470
1489
1456
1456
1470
1491
1519
1527
1581
1582
1612
1633
1658
1677
1687
1711
1761
1853
2100
2608
3280
4095
4095
4095
3883
3295
2787
2402
2085
1836
1599
1404
1245
1161
1118
1163
1207
1298
1419
1459
1472
1488
1418
1433
1424
1412
1406
1394
1435
1445
1478
1510
1535
1575
1602
1632
1645
1679
1695
1717
1739
1776
1915
2250
2785
3629
4095
4095
4095
3889
3216
2725
2333
2026
1767
1521
1326
1171
1088
1074
1085
1152
1253
1375
1425
1456
1456
1439
1430
1397
1392
1391
1390
1434
1409
1483
1509
1535
1594
1599
1616
1667
1671
1712
1728
1743
1792
1949
2334
2918
3766
4095
4095
4095
3568
2983
2545
2221
1922
1677
1479
1306
1193
1157
1179
1238
1319
1446
1502
1517
1520
1499
1484
1458
1449
1379
1403
1424
1483
1514
1561
1568
1583
1593
1619
1648
1666
1709
1933
2370
2993
3808
4095
4095
3888
3313
2797
2401
2096
1840
1616
1431
1284
1159
1121
1153
1200
1284
1407
1455
1483
1485
1461
1421
1405
1347
1333
1344
1383
1446
1490
1523
1558
1573
1559
1596
1603
1645
1670
1757
1993
2483
3181
4062
4095
4095
3920
3349
2771
2402
2090
1840
1618
1424
1247
1146
1101
1119
1166
1250
1370
1417
1437
1440
1413
1396
1385
1387
1371
1373
1389
1399
1435
1471
1526
1535
1589
1610
1649
1653
1689
1712
1749
1856
2147
2689
3431
4095
4095
4095
3760
3149
2694
2319
2014
1752
1555
1346
1219
1159
1145
1173
1247
1335
1429
1479
1487
1481
1488
1466
1469
1449
1435
1456
1461
1499
1535
1571
1585
1632
1632
1676
1675
1701
1736
1841
2123
2627
3311
4095
4095
4095
3750
3126
2645
2273
1968
1714
1501
1317
1200
1150
1139
1201
1283
1415
1455
1456
1487
1473
1447
1428
1407
1353
1354
1379
1443
1493
1533
1559
1584
1593
1631
1638
1673
1674
1719
1839
2181
2719
3485
4095
4095
4095
3711
3102
2624
2261
1974
1735
1518
1328
1195
1113
1111
1155
1231
1326
1424
1456
1445
1441
1426
1424
1406
1385
1383
1382
1406
1441
1483
1489
1535
1577
1603
1647
1649
1677
1697
1729
1761
1838
2103
2597
3325
4095
4095
4095
3922
3312
2765
2378
2063
1801
1584
1398
1253
1168
1149
1170
1229
1327
1430
1475
1493
1494
1487
1482
1458
1455
1447
1451
1455
1482
1503
1535
1563
1606
1631
1679
1705
1693
1679
1729
1763
1903
2301
2894
3755
4095
4095
4095
3568
2947
2498
2161
1863
1633
1418
1277
1171
1143
1175
1232
1333
1454
1493
1503
1505
1488
1467
1461
1392
1367
1391
1413
1477
1517
1557
1567
1609
1628
1657
1667
1700
1696
1723
1744
1813
1986
2384
3004
3888
4095
4095
4095
3504
2933
2510
2179
1894
1654
1461
1296
1193
1122
1152
1190
1269
1415
1458
1486
1460
1451
1426
1424
1403
1413
1415
1413
1442
1467
1501
1527
1579
1605
1647
1664
1700
1712
1744
1758
1776
1812
1841
2013
2383
2967
3824
4095
4095
4095
3522
2943
2518
2167
1899
1666
1455
1294
1190
1179
1187
1253
1344
1457
1513
1535
1535
1525
1520
1498
1482
1493
1493
1481
1513
1525
1559
1603
1617
1645
1669
1709
1721
1726
1737
1770
1803
1872
2143
2624
3302
4095
4095
4095
3729
3135
2682
2307
1996
1766
1554
1362
1256
1185
1174
1222
1293
1423
1488
1510
1535
1527
1510
1500
1485
1488
1485
1490
1490
1511
1535
1566
1600
1635
1675
1709
1711
1733
1765
1775
1806
1817
1887
2112
2543
3212
3999
4095
4095
3870
3280
2791
2384
2082
1826
1616
1419
1293
1200
1171
1198
1258
1357
1463
1520
1532
1535
1520
1530
1500
1491
1505
1509
1518
1535
1554
1577
1603
1645
1685
1698
1734
1755
1787
1793
1795
1831
1835
1858
1936
2160
2609
3223
3969
4095
4095
3754
3186
2719
2353
2089
1829
1623
1468
1324
1253
1258
1289
1327
1445
1525
1568
1589
1595
1535
1562
1532
1533
1519
1527
1559
1571
1585
1616
1657
1669
1690
1719
1748
1781
1785
1799
1822
1822
1843
1887
1953
2214
2681
3335
3997
4095
4095
3662
3129
2704
2337
2069
1809
1607
1455
1313
1242
1237
1264
1328
1424
1505
1561
1575
1566
1574
1553
1558
1535
1535
1535
1562
1579
1588
1617
1654
1678
1712
1738
1748
1781
1787
1814
1839
1854
1860
1881
1920
2026
2339
2839
3489
4095
4095
3983
3473
2960
2559
2256
2001
1765
1565
1411
1291
1249
1262
1322
1386
1507
1562
1597
1591
1586
1579
1564
1535
1533
1535
1535
1571
1578
1615
1629
1665
1685
1714
1754
1748
1786
1793
1808
1835
1843
1857
1936
2131
2513
3051
3722
4095
4089
3706
3215
2784
2415
2129
1889
1677
1503
1387
1286
1264
1287
1342
1424
1531
1566
1601
1616
1601
1586
1568
1570
1563
1563
1566
1586
1602
1623
1661
1702
1706
1729
1776
1782
1789
1808
1824
1851
1863
1878
1966
2197
2626
3221
3851
4095
4045
3583
3095
2682
2338
2066
1849
1657
1487
1370
1280
1271
1302
1367
1475
1557
1607
1611
1594
1589
1582
1563
1557
1569
1561
1566
1583
1613
1632
1667
1681
1715
1745
1759
1777
1794
1833
1834
1864
1879
1882
1936
2099
2459
2997
3646
4095
4095
3867
3357
2886
2501
2195
1935
1726
1535
1391
1296
1279
1264
1315
1394
1525
1565
1599
1605
1619
1588
1593
1588
1553
1590
1599
1587
1619
1633
1637
1688
1710
1725
1749
1761
1801
1827
1841
1840
1867
1859
1885
1936
2071
2397
2918
3547
4079
4095
3844
3374
2916
2529
2225
1965
1744
1558
1413
1299
1277
1261
1313
1398
1509
1565
1581
1615
1616
1600
1591
1586
1579
1584
1614
1597
1616
1633
1681
1681
1680
1754
1763
1776
1793
1831
1844
1843
1871
1891
1894
1985
2230
2640
3199
3763
4066
3938
3531
3105
2705
2397
2118
1885
1693
1515
1404
1328
1305
1335
1392
1487
1584
1621
1637
1638
1614
1616
1600
1594
1583
1582
1623
1606
1630
1651
1712
1699
1719
1755
1781
1795
1798
1808
1830
1858
1887
1999
2313
2783
3414
4014
4095
3920
3472
2998
2643
2352
2085
1873
1680
1520
1402
1331
1310
1343
1397
1483
1568
1595
1609
1584
1584
1574
1563
1478
1470
1487
1509
1587
1632
1637
1676
1694
1695
1725
1733
1776
1778
1781
1824
1823
1920
2189
2672
3325
4095
4095
4095
3945
3374
2850
2476
2191
1935
1699
1501
1357
1257
1229
1250
1312
1371
1489
1519
1526
1523
1488
1461
1401
1386
1375
1392
1409
1455
1519
1535
1562
1611
1605
1631
1655
1670
1712
1716
1729
1749
1801
1987
2400
3082
4075
4095
4095
4095
3892
3197
2713
2349
2047
1808
1571
1370
1238
1171
1159
1212
1268
1384
1444
1461
1472
1431
1424
1325
1315
1295
1296
1305
1339
1407
1431
1460
1493
1509
1530
1562
1587
1606
1621
1624
1654
1691
1744
1986
2447
3157
4095
4095
4095
4095
4023
3275
2751
2389
2071
1799
1557
1325
1186
1107
1088
1115
1169
1249
1343
1367
1362
1345
1327
1266
1235
1223
1181
1229
1249
1338
1359
1370
1407
1424
1467
1489
1510
1568
1580
1606
1648
1648
1675
1726
1853
2218
2838
3874
4095
4095
4095
4095
3609
2975
2533
2187
1901
1647
1429
1239
1136
1090
1113
1182
1248
1363
1391
1382
1360
1318
1223
1214
1200
1183
1189
1193
1232
1313
1355
1375
1395
1427
1456
1488
1515
1533
1535
1570
1577
1606
1695
1906
2338
3056
4095
4095
4095
4095
3853
3198
2703
2321
2032
1759
1519
1323
1181
1097
1088
1102
1166
1246
1329
1366
1349
1338
1292
1232
1219
1201
1212
1238
1299
1344
1369
1381
1407
1439
1463
1486
1518
1530
1575
1603
1603
1626
1691
1863
2283
2918
3902
4095
4095
4095
4095
3464
2882
2473
2139
1813
1527
1285
1107
982
925
915
977
1045
1082
1177
1200
1203
1205
1212
1219
1221
1228
1269
1267
1296
1330
1359
1410
1424
1457
1494
1527
1579
1597
1634
1659
1678
1728
1890
2256
2787
3559
4095
4095
4095
3621
3043
2630
2304
2032
1793
1604
1415
1297
1247
1231
1255
1309
1387
1471
1503
1493
1485
1459
1440
1380
1360
1359
1379
1379
1456
1482
1515
1535
1535
1584
1589
1621
1630
1657
1720
1926
2321
2915
3796
4095
4095
4095
3731
3123
2663
2327
2032
1777
1535
1345
1189
1127
1088
1136
1171
1232
1328
1351
1359
1341
1328
1310
1296
1286
1294
1296
1312
1342
1376
1409
1444
1478
1520
1556
1595
1601
1627
1655
1689
1741
1898
2262
2830
3665
4095
4095
4095
3877
3216
2741
2361
2070
1808
1585
1379
1229
1159
1138
1178
1247
1323
1408
1435
1449
1408
1401
1386
1303
1293
1296
1322
1373
1425
1437
1483
1487
1512
1535
1579
1600
1606
1615
1645
1744
1996
2469
3168
4095
4095
4095
4095
3646
3030
2591
2240
1969
1727
1489
1297
1171
1122
1095
1136
1185
1264
1360
1371
1349
1350
1314
1297
1299
1226
1223
1261
1329
1387
1419
1445
1482
1520
1535
1578
1597
1616
1639
1664
1705
1722
1765
1922
2321
2911
3796
4095
4095
4095
3874
3253
2784
2402
2117
1877
1641
1439
1290
1206
1200
1216
1275
1362
1447
1473
1455
1427
1395
1328
1296
1287
1309
1305
1328
1398
1424
1472
1467
1501
1522
1554
1587
1609
1612
1619
1649
1684
1789
2122
2694
3553
4095
4095
4095
4095
3462
2899
2480
2154
1873
1639
1409
1255
1136
1088
1104
1152
1227
1318
1357
1375
1349
1334
1303
1243
1227
1232
1238
1296
1350
1393
1403
1423
1459
1487
1520
1555
1573
1591
1637
1651
1665
1682
1716
1770
1900
2288
2914
3937
4095
4095
4095
4068
3392
2839
2439
2128
1847
1615
1392
1248
1151
1094
1123
1171
1232
1333
1392
1392
1392
1360
1328
1343
1330
1306
1309
1329
1360
1386
1419
1442
1461
1510
1535
1558
1588
1629
1640
1665
1690
1712
1815
2113
2679
3534
4095
4095
4095
4095
3553
2909
2480
2138
1859
1623
1387
1232
1118
1106
1124
1203
1275
1397
1410
1412
1392
1363
1346
1296
1266
1279
1295
1303
1392
1435
1439
1475
1511
1522
1535
1581
1578
1600
1622
1721
2016
2555
3383
4095
4095
4095
4095
3546
2928
2495
2165
1888
1635
1410
1250
1130
1073
1082
1137
1225
1326
1378
1385
1370
1355
1318
1245
1224
1237
1258
1274
1346
1375
1414
1440
1463
1488
1520
1572
1585
1593
1605
1638
1665
1712
1840
2185
2823
3861
4095
4095
4095
4095
3538
2919
2494
2146
1877
1653
1424
1246
1138
1088
1115
1155
1219
1302
1347
1359
1355
1328
1296
1215
1216
1210
1235
1247
1329
1360
1395
1421
1463
1485
1522
1535
1585
1599
1626
1645
1665
1675
1691
1760
1945
2435
3200
4095
4095
4095
4095
4095
3344
2779
2371
2043
1792
1535
1325
1176
1099
1075
1119
1200
1296
1363
1392
1375
1347
1328
1245
1229
1221
1215
1237
1271
1358
1365
1402
1413
1458
1492
1527
1535
1575
1601
1633
1639
1666
1674
1708
1776
2009
2515
3353
4095
4095
4095
4095
3853
3136
2635
2301
1991
1741
1504
1313
1168
1130
1123
1154
1242
1333
1406
1431
1424
1392
1361
1303
1282
1274
1277
1295
1357
1399
1418
1445
1472
1495
1523
1575
1575
1594
1623
1631
1651
1659
1686
1783
2095
2658
3597
4095
4095
4095
4095
3628
2932
2487
2127
1853
1607
1392
1219
1106
1094
1113
1186
1271
1376
1404
1403
1360
1335
1264
1250
1228
1231
1237
1269
1334
1366
1392
1422
1447
1470
1510
1533
1561
1583
1591
1616
1639
1661
1703
1791
2038
2608
3583
4095
4095
4095
4095
3943
3178
2628
2256
1949
1709
1483
1275
1137
1081
1067
1116
1183
1309
1363
1384
1366
1339
1270
1229
1201
1216
1211
1231
1263
1328
1360
1399
1424
1470
1487
1517
1533
1569
1613
1616
1646
1655
1679
1714
1748
1857
2198
2806
3920
4095
4095
4095
4095
3583
2901
2453
2112
1841
1614
1406
1245
1136
1127
1136
1202
1283
1393
1398
1403
1373
1344
1266
1251
1249
1253
1238
1282
1360
1376
1423
1451
1457
1498
1506
1535
1565
1603
1618
1646
1678
1698
1717
1754
1840
2080
2583
3435
4095
4095
4095
4095
3665
3023
2544
2192
1934
1701
1493
1329
1211
1159
1166
1216
1296
1429
1485
1506
1491
1456
1422
1348
1320
1325
1314
1328
1345
1438
1462
1487
1501
1554
1578
1584
1609
1618
1649
1670
1700
1717
1759
1886
2269
2947
4045
4095
4095
4095
3991
3250
2683
2297
2007
1761
1535
1347
1213
1135
1097
1126
1197
1285
1387
1431
1421
1403
1385
1378
1312
1283
1281
1300
1316
1414
1440
1473
1493
1523
1535
1584
1615
1653
1664
1689
1725
1731
1748
1792
1885
2221
2817
3781
4095
4095
4095
4090
3361
2797
2406
2097
1839
1621
1431
1291
1170
1133
1137
1200
1276
1398
1450
1456
1451
1450
1426
1395
1407
1382
1392
1398
1423
1434
1466
1495
1557
1598
1616
1648
1670
1699
1712
1725
1746
1770
1805
1890
2177
2763
3663
4095
4095
4095
4080
3344
2783
2368
2064
1790
1588
1387
1245
1133
1138
1189
1251
1360
1471
1494
1488
1476
1453
1435
1417
1359
1359
1361
1392
1458
1488
1519
1535
1567
1605
1637
1655
1680
1712
1729
1734
1761
1776
1818
2000
2452
3159
4095
4095
4095
4095
3771
3086
2622
2241
1953
1712
1511
1328
1195
1139
1125
1157
1217
1333
1424
1458
1466
1469
1421
1420
1417
1398
1407
1415
1419
1456
1488
1503
1535
1586
1616
1654
1675
1712
1735
1751
1778
1793
1812
1854
1957
2310
2879
3776
4095
4095
4095
3813
3161
2674
2293
1981
1746
1529
1358
1225
1168
1156
1196
1293
1408
1482
1515
1514
1502
1488
1486
1457
1455
1442
1439
1453
1479
1495
1514
1584
1587
1627
1652
1695
1705
1744
1744
1755
1787
1808
1885
2113
2633
3376
4095
4095
4095
4095
3397
2855
2458
2135
1862
1638
1445
1301
1203
1156
1165
1217
1284
1405
1479
1490
1493
1503
1471
1475
1456
1452
1465
1456
1483
1495
1535
1558
1593
1632
1670
1648
1705
1738
1712
1775
1781
1810
1889
2128
2612
3319
4095
4095
4095
3846
3266
2763
2384
2077
1829
1622
1446
1303
1202
1181
1206
1278
1390
1479
1535
1579
1584
1566
1530
1533
1506
1509
1499
1530
1527
1565
1569
1616
1621
1641
1673
1694
1701
1712
1745
1808
2032
2501
3174
4016
4095
4095
3725
3152
2664
2293
1970
1717
1518
1373
1254
1199
1186
1211
1299
1427
1525
1563
1589
1585
1581
1562
1535
1530
1527
1535
1535
1567
1606
1621
1633
1669
1681
1699
1725
1840
2142
2704
3414
4095
4095
4053
3491
2944
2559
2225
1937
1725
1499
1341
1221
1136
1141
1207
1270
1392
1472
1489
1504
1514
1494
1477
1469
1462
1481
1479
1488
1503
1526
1535
1586
1631
1744
2063
2559
3227
3900
4095
3856
3397
2906
2529
2224
1955
1742
1535
1365
1252
1166
1168
1190
1264
1366
1442
1479
1482
1501
1476
1464
1439
1453
1449
1447
1469
1484
1495
1535
1580
1634
1830
2242
2847
3493
3920
3971
3583
3143
2725
2388
2126
1859
1648
1461
1328
1223
1193
1216
1270
1341
1466
1489
1510
1501
1474
1459
1455
1434
1431
1449
1456
1479
1503
1519
1565
1574
1590
1633
1638
1690
1874
2299
2954
3938
4095
4095
4095
3511
2943
2506
2181
1934
1694
1457
1296
1213
1186
1232
1285
1399
1482
1501
1489
1457
1421
1348
1349
1338
1344
1356
1362
1423
1474
1511
1520
1559
1571
1562
1577
1576
1616
1741
2128
2832
3926
4095
4095
4095
3919
3216
2705
2320
2011
1761
1529
1338
1162
1086
1073
1088
1145
1197
1296
1320
1311
1299
1263
1195
1164
1163
1173
1202
1261
1309
1328
1360
1392
1424
1455
1501
1525
1564
1588
1601
1623
1660
1681
1726
1757
1904
2250
2815
3600
4095
4095
3935
3387
2895
2544
2286
2030
1812
1664
1474
1375
1315
1309
1315
1360
1408
1472
1520
1494
1474
1483
1447
1452
1439
1431
1429
1465
1473
1505
1535
1559
1583
1621
1650
1677
1694
1710
1746
1767
1777
1811
1910
2154
2512
2970
3386
3536
3367
3046
2750
2477
2244
2045
1901
1761
1630
1568
1509
1526
1574
1605
1674
1689
1724
1712
1680
1639
1590
1557
1563
1569
1584
1594
1649
1691
1694
1722
1715
1737
1735
1767
1747
1743
1779
1789
1835
1943
2191
2582
3070
3613
3840
3714
3407
3025
2698
2425
2198
1999
1831
1681
1559
1494
1470
1472
1535
1573
1645
1678
1648
1627
1510
1470
1466
1458
1467
1485
1498
1502
1567
1586
1584
1599
1616
1615
1635
1645
1665
1693
1706
1719
1745
1869
2131
2527
3062
3599
3863
3728
3366
2991
2674
2401
2160
1967
1770
1601
1475
1397
1392
1398
1435
1491
1559
1583
1584
1579
1530
1482
1453
1427
1424
1456
1471
1530
1535
1561
1597
1616
1631
1648
1667
1679
1707
1746
1901
2190
2641
3181
3707
3855
3664
3259
2864
2534
2269
2021
1818
1639
1485
1393
1341
1346
1395
1433
1534
1594
1616
1603
1570
1558
1479
1445
1456
1454
1463
1472
1535
1589
1612
1643
1673
1681
1698
1702
1703
1705
1712
1728
1815
2067
2495
3056
3684
3980
3856
3440
3011
2645
2346
2096
1842
1657
1501
1376
1327
1313
1347
1401
1488
1535
1581
1568
1555
1531
1511
1449
1439
1434
1456
1481
1535
1571
1583
1603
1632
1648
1665
1679
1707
1727
1739
1794
1964
2320
2861
3583
4095
4095
3825
3268
2822
2479
2177
1930
1701
1524
1369
1275
1254
1264
1328
1415
1535
1571
1568
1554
1529
1515
1485
1431
1421
1433
1446
1506
1535
1584
1584
1619
1634
1648
1663
1681
1712
1728
1763
1877
2169
2673
3367
4041
4095
3969
3487
2960
2559
2231
1964
1747
1535
1387
1293
1232
1262
1316
1377
1506
1555
1568
1564
1535
1527
1461
1417
1408
1411
1447
1455
1535
1582
1584
1620
1639
1667
1689
1701
1705
1744
1805
1968
2337
2896
3629
4095
4095
3731
3216
2762
2405
2113
1867
1631
1456
1317
1225
1219
1270
1345
1458
1535
1567
1558
1579
1520
1498
1441
1424
1417
1433
1455
1527
1535
1582
1595
1611
1634
1659
1678
1665
1731
1879
2265
2822
3545
4095
4095
3895
3386
2896
2524
2208
1962
1745
1535
1382
1280
1212
1239
1280
1348
1456
1490
1503
1493
1439
1439
1364
1359
1344
1367
1372
1428
1473
1495
1507
1531
1573
1579
1600
1600
1642
1679
1838
2187
2709
3422
4087
4095
3964
3446
2953
2581
2265
2011
1803
1614
1425
1309
1250
1227
1264
1322
1371
1458
1470
1467
1438
1423
1370
1338
1345
1366
1382
1458
1488
1504
1521
1535
1559
1578
1584
1606
1610
1637
1669
1738
2064
2559
3259
4032
4095
4065
3527
3037
2638
2304
2047
1826
1622
1455
1325
1253
1246
1281
1293
1340
1363
1424
1424
1407
1392
1378
1360
1310
1316
1338
1384
1436
1473
1491
1518
1535
1556
1584
1609
1626
1651
1703
1851
2183
2753
3469
4095
4095
4031
3536
3004
2615
2293
1995
1789
1595
1424
1294
1241
1246
1298
1360
1459
1494
1511
1488
1456
1397
1348
1331
1351
1346
1360
1427
1458
1484
1507
1517
1534
1535
1565
1580
1610
1762
2128
2696
3494
4095
4095
4095
3605
3027
2601
2283
1984
1758
1535
1346
1198
1170
1131
1164
1241
1295
1386
1394
1372
1362
1328
1264
1247
1245
1262
1275
1370
1380
1427
1463
1498
1521
1535
1566
1591
1609
1621
1664
1776
2095
2652
3477
4095
4095
4095
3952
3329
2802
2427
2144
1887
1659
1423
1273
1157
1109
1125
1184
1239
1342
1389
1376
1360
1320
1328
1296
1278
1309
1321
1319
1347
1380
1425
1454
1513
1535
1579
1600
1616
1649
1677
1693
1729
1822
2116
2653
3420
4095
4095
4095
4016
3365
2818
2427
2142
1861
1627
1421
1287
1205
1188
1205
1290
1339
1437
1443
1425
1392
1373
1307
1284
1296
1312
1318
1328
1424
1424
1466
1502
1519
1555
1586
1593
1616
1628
1647
1743
1983
2458
3219
4095
4095
4095
4095
3619
3007
2559
2233
1967
1725
1486
1298
1165
1107
1104
1151
1219
1257
1354
1370
1351
1328
1323
1296
1243
1221
1234
1258
1338
1375
1405
1439
1465
1499
1553
1557
1579
1618
1650
1702
1936
2346
3001
3951
4095
4095
4095
3473
2911
2512
2187
1938
1712
1489
1333
1205
1180
1175
1245
1297
1410
1470
1478
1477
1438
1414
1349
1332
1339
1338
1397
1447
1488
1495
1520
1535
1535
1584
1590
1611
1648
1729
2030
2559
3327
4095
4095
4095
4003
3315
2787
2384
2039
1802
1562
1342
1207
1119
1104
1133
1194
1254
1364
1382
1367
1362
1331
1322
1313
1297
1296
1305
1323
1349
1395
1421
1467
1499
1531
1568
1611
1626
1663
1683
1775
2006
2510
3257
4095
4095
4095
4032
3440
2891
2545
2251
1997
1771
1564
1385
1261
1197
1207
1232
1307
1326
1393
1409
1393
1364
1328
1278
1311
1302
1367
1424
1451
1467
1498
1509
1535
1568
1572
1594
1612
1642
1747
2035
2555
3281
4095
4095
4095
3728
3152
2713
2384
2109
1875
1645
1441
1296
1202
1162
1191
1263
1328
1417
1440
1441
1428
1401
1378
1327
1307
1303
1332
1402
1456
1430
1458
1485
1505
1507
1535
1555
1594
1624
1770
2145
2721
3519
4095
4095
4095
3531
2993
2604
2277
1995
1757
1519
1340
1228
1196
1191
1239
1338
1459
1504
1522
1491
1468
1397
1345
1349
1327
1344
1350
1413
1451
1470
1482
1515
1527
1566
1581
1585
1703
2071
2659
3494
4095
4095
4095
3699
3060
2611
2283
1973
1732
1520
1310
1174
1110
1121
1191
1263
1379
1414
1409
1387
1373
1291
1241
1234
1228
1232
1272
1350
1377
1416
1447
1466
1497
1517
1535
1559
1593
1627
1754
2125
2736
3628
4095
4095
4095
3869
3230
2733
2374
2066
1807
1593
1361
1210
1117
1104
1138
1219
1296
1379
1401
1388
1360
1357
1295
1242
1231
1264
1265
1318
1381
1415
1447
1472
1491
1510
1535
1578
1593
1637
1754
2114
2675
3472
4095
4095
4095
3717
3153
2698
2361
2085
1835
1618
1387
1232
1157
1141
1172
1230
1301
1392
1403
1403
1372
1350
1261
1259
1248
1258
1263
1344
1392
1416
1456
1473
1498
1535
1578
1598
1617
1661
1714
1941
2383
2991
3775
4095
4095
3898
3344
2878
2527
2250
1996
1759
1535
1372
1266
1216
1227
1281
1369
1438
1494
1498
1473
1453
1445
1360
1344
1353
1353
1363
1425
1472
1488
1507
1531
1558
1576
1584
1599
1657
1789
2107
2609
3247
3915
4095
3979
3516
3041
2661
2355
2080
1852
1621
1430
1301
1223
1219
1246
1331
1367
1465
1493
1469
1437
1381
1344
1327
1311
1330
1356
1400
1456
1487
1503
1535
1584
1578
1596
1601
1621
1651
1724
1941
2355
2913
3696
4095
4095
3825
3320
2887
2544
2259
2018
1794
1595
1421
1289
1251
1255
1280
1357
1405
1463
1466
1455
1443
1397
1326
1328
1328
1350
1368
1437
1479
1483
1526
1555
1591
1613
1622
1635
1678
1681
1706
1729
1820
2073
2515
3103
3807
4095
4095
3728
3218
2800
2487
2222
1983
1761
1586
1420
1328
1297
1311
1360
1420
1510
1534
1514
1506
1477
1411
1405
1387
1383
1392
1411
1482
1520
1535
1535
1571
1596
1616
1629
1658
1667
1697
1726
1794
2016
2448
3037
3719
4095
4095
3808
3305
2863
2515
2227
1988
1776
1527
1392
1287
1264
1267
1312
1371
1475
1505
1509
1488
1485
1421
1376
1357
1367
1366
1385
1456
1503
1535
1535
1584
1595
1629
1639
1658
1680
1682
1712
1777
1953
2305
2846
3530
4095
4095
3951
3482
2978
2612
2322
2047
1833
1630
1435
1326
1260
1239
1271
1331
1399
1483
1506
1505
1473
1458
1462
1439
1407
1360
1369
1408
1472
1516
1563
1584
1597
1631
1664
1671
1699
1712
1744
1776
1850
2093
2525
3091
3776
4095
4063
3709
3219
2821
2482
2201
1952
1741
1535
1389
1310
1260
1285
1357
1421
1535
1518
1535
1525
1502
1487
1405
1398
1405
1423
1485
1524
1558
1588
1609
1616
1653
1666
1683
1717
1732
1809
2041
2448
2941
3485
3820
3750
3417
3051
2709
2419
2191
1969
1747
1568
1418
1331
1311
1322
1371
1419
1506
1535
1535
1522
1517
1506
1492
1487
1495
1488
1503
1530
1533
1600
1605
1638
1664
1701
1711
1729
1767
1826
2001
2366
2832
3369
3721
3721
3409
3045
2736
2435
2193
1973
1766
1594
1450
1362
1322
1341
1395
1454
1575
1623
1627
1646
1641
1613
1611
1599
1599
1616
1612
1611
1617
1632
1627
1658
1665
1684
1690
1792
2027
2449
2983
3610
3925
3914
3583
3200
2799
2496
2221
1962
1724
1516
1362
1277
1226
1239
1311
1363
1461
1509
1519
1509
1501
1488
1473
1399
1377
1397
1397
1493
1513
1535
1572
1590
1609
1641
1675
1696
1835
2160
2659
3216
3795
3992
3795
3389
2995
2642
2321
2067
1830
1629
1443
1322
1243
1232
1263
1291
1354
1412
1454
1471
1456
1455
1439
1426
1424
1442
1456
1455
1487
1524
1554
1571
1593
1644
1662
1690
1785
2000
2405
2866
3344
3675
3622
3303
2954
2646
2381
2139
1925
1721
1535
1413
1328
1299
1334
1373
1434
1514
1559
1531
1525
1518
1504
1513
1501
1514
1535
1568
1584
1627
1642
1659
1680
1699
1729
1751
1778
1819
1926
2224
2658
3226
3776
3982
3834
3475
3049
2722
2419
2171
1933
1729
1535
1406
1321
1291
1311
1346
1382
1443
1497
1498
1482
1459
1451
1458
1457
1457
1454
1471
1501
1525
1579
1598
1619
1666
1679
1699
1726
1751
1765
1792
1847
2029
2399
2896
3520
3959
4005
3696
3321
2907
2589
2320
2064
1842
1625
1471
1375
1315
1325
1361
1424
1492
1555
1535
1566
1535
1504
1498
1487
1482
1503
1499
1517
1527
1568
1596
1601
1630
1645
1663
1694
1755
1960
2313
2785
3310
3702
3774
3549
3185
2825
2509
2243
1998
1778
1564
1413
1313
1274
1296
1342
1405
1487
1523
1524
1518
1514
1489
1467
1419
1424
1424
1456
1522
1557
1595
1616
1628
1650
1673
1671
1711
1792
2031
2445
2940
3479
3824
3857
3529
3130
2801
2477
2205
1993
1783
1560
1392
1296
1259
1280
1345
1385
1460
1501
1505
1500
1485
1485
1451
1403
1383
1396
1424
1490
1535
1570
1601
1613
1637
1648
1680
1686
1719
1805
2011
2418
2929
3557
3979
4001
3677
3278
2880
2555
2285
2002
1830
1629
1445
1317
1264
1262
1294
1363
1447
1511
1535
1526
1505
1489
1472
1462
1397
1392
1415
1442
1518
1563
1594
1605
1629
1645
1670
1699
1735
1787
1983
2379
2917
3599
4075
4095
3764
3297
2868
2527
2259
2001
1786
1584
1424
1330
1264
1263
1299
1361
1456
1503
1518
1487
1470
1469
1406
1373
1366
1381
1389
1451
1505
1514
1535
1584
1603
1610
1630
1649
1693
1776
2047
2485
3071
3765
4095
4095
3695
3216
2794
2464
2176
1938
1712
1518
1363
1252
1200
1202
1242
1309
1414
1477
1479
1472
1457
1455
1421
1376
1351
1360
1358
1453
1522
1507
1535
1584
1597
1618
1633
1651
1680
1697
1758
1857
2141
2623
3229
3888
4095
4007
3563
3083
2679
2375
2122
1861
1648
1468
1332
1266
1241
1277
1354
1435
1524
1535
1535
1520
1513
1475
1409
1392
1423
1415
1439
1520
1535
1559
1584
1599
1616
1625
1643
1680
1829
2125
2639
3198
3931
4095
4095
3629
3141
2729
2388
2096
1841
1623
1426
1287
1187
1170
1207
1264
1335
1439
1454
1456
1439
1424
1391
1328
1312
1318
1335
1363
1441
1454
1489
1489
1525
1567
1577
1601
1637
1695
1864
2249
2768
3490
4095
4095
3984
3519
2992
2610
2303
2014
1763
1558
1378
1255
1181
1173
1211
1255
1339
1424
1461
1459
1444
1442
1409
1396
1338
1344
1341
1382
1447
1491
1498
1535
1535
1589
1613
1619
1663
1713
1926
2311
2876
3583
4095
4095
3934
3430
2938
2559
2258
1977
1729
1520
1346
1248
1175
1199
1250
1334
1463
1524
1503
1499
1465
1457
1362
1342
1354
1335
1351
1375
1445
1472
1498
1501
1535
1535
1565
1591
1630
1745
2021
2486
3162
3984
4095
4095
3913
3363
2854
2480
2174
1903
1662
1439
1264
1167
1146
1156
1205
1275
1376
1441
1431
1413
1403
1355
1282
1263
1237
1271
1303
1339
1414
1393
1442
1452
1502
1502
1526
1565
1629
1792
2148
2723
3469
4095
4095
4095
3598
3042
2642
2295
2021
1756
1521
1341
1210
1152
1158
1175
1251
1376
1440
1453
1443
1424
1390
1331
1291
1282
1305
1298
1323
1391
1421
1417
1472
1486
1495
1515
1535
1569
1634
1831
2242
2859
3635
4095
4095
4074
3518
2998
2602
2273
1979
1748
1507
1311
1200
1135
1135
1183
1235
1340
1398
1408
1407
1390
1371
1280
1255
1259
1259
1275
1331
1374
1398
1413
1438
1465
1503
1519
1556
1574
1639
1779
2128
2660
3376
4095
4095
4091
3571
3054
2657
2336
2063
1808
1577
1394
1245
1173
1181
1205
1275
1362
1434
1457
1444
1415
1403
1326
1293
1280
1293
1313
1358
1405
1410
1447
1466
1487
1509
1520
1566
1585
1629
1807
2170
2709
3457
4095
4095
4023
3513
3025
2615
2304
2015
1773
1519
1337
1203
1135
1135
1168
1240
1313
1385
1394
1391
1375
1355
1346
1286
1264
1266
1309
1361
1399
1427
1461
1481
1527
1534
1575
1601
1621
1646
1743
2004
2496
3129
3890
4095
4095
3788
3245
2789
2439
2150
1882
1643
1446
1295
1218
1200
1247
1322
1425
1509
1520
1503
1498
1463
1373
1353
1344
1351
1382
1385
1460
1471
1485
1517
1505
1535
1568
1601
1680
1934
2393
3024
3829
4095
4095
3984
3377
2893
2495
2191
1921
1652
1424
1250
1137
1098
1118
1168
1250
1367
1405
1409
1383
1355
1323
1253
1233
1233
1243
1267
1350
1392
1405
1426
1462
1489
1509
1535
1571
1670
1975
2448
3121
3913
4095
4095
3830
3280
2791
2433
2113
1854
1607
1403
1218
1120
1088
1111
1195
1265
1391
1424
1440
1430
1414
1383
1328
1311
1306
1318
1337
1410
1441
1453
1473
1495
1519
1531
1575
1634
1803
2176
2786
3562
4095
4095
4095
3577
3035
2631
2298
1987
1728
1485
1296
1168
1088
1109
1158
1241
1356
1411
1419
1392
1375
1350
1286
1251
1263
1266
1291
1373
1408
1417
1439
1477
1497
1522
1535
1583
1600
1712
1987
2476
3183
4075
4095
4095
4007
3350
2830
2448
2150
1889
1621
1409
1269
1130
1088
1136
1168
1259
1369
1407
1424
1409
1385
1372
1365
1282
1281
1306
1323
1395
1424
1455
1499
1515
1530
1569
1584
1616
1643
1663
1739
1969
2441
3106
3971
4095
4095
4095
3479
2943
2551
2220
1942
1667
1454
1281
1170
1150
1184
1259
1355
1447
1488
1467
1451
1411
1355
1330
1313
1296
1296
1323
1367
1433
1462
1488
1509
1520
1562
1535
1589
1616
1655
1824
2215
2815
3666
4095
4095
4095
3743
3152
2717
2362
2080
1818
1593
1387
1238
1154
1168
1206
1249
1330
1414
1439
1424
1413
1354
1298
1270
1258
1265
1276
1296
1396
1405
1424
1457
1488
1487
1509
1535
1581
1639
1829
2250
2848
3632
4095
4095
3931
3358
2875
2512
2199
1937
1718
1499
1352
1202
1154
1165
1235
1285
1398
1441
1474
1456
1440
1425
1358
1328
1326
1337
1325
1392
1456
1485
1474
1511
1518
1535
1583
1605
1619
1662
1829
2159
2715
3377
3999
4095
3878
3421
2922
2559
2288
2032
1831
1609
1439
1328
1262
1264
1300
1360
1427
1484
1487
1472
1461
1403
1353
1353
1341
1339
1365
1414
1424
1480
1494
1553
1559
1568
1581
1605
1616
1725
2029
2526
3184
3877
4095
4067
3563
3063
2698
2385
2133
1901
1686
1506
1342
1239
1234
1245
1293
1353
1438
1455
1442
1417
1409
1309
1307
1292
1286
1319
1392
1419
1451
1470
1499
1509
1523
1557
1584
1607
1680
1875
2277
2858
3501
4022
4000
3631
3175
2774
2446
2166
1947
1756
1535
1387
1264
1225
1216
1247
1291
1347
1442
1455
1456
1428
1408
1392
1327
1318
1324
1347
1425
1456
1485
1506
1529
1564
1568
1584
1616
1646
1754
2000
2459
3041
3696
4047
3947
3486
3027
2667
2353
2099
1843
1661
1483
1341
1271
1266
1323
1383
1495
1535
1565
1525
1507
1451
1391
1375
1386
1364
1383
1412
1488
1495
1505
1520
1535
1554
1593
1662
1904
2357
2959
3696
4095
4095
3741
3227
2795
2461
2196
1967
1722
1513
1359
1254
1229
1226
1270
1331
1435
1446
1467
1424