4095
4095
3488
2889
2456
2087
1773
1517
1321
1186
1115
1093
1111
1171
1219
1254
1258
1245
1223
1207
1230
1235
1309
1341
1357
1392
1410
1443
1455
1477
1488
1517
1535
1661
2042
2710
3642
4095
4095
4095
3408
2795
2323
1966
1648
1393
1200
1071
993
970
1003
1051
1093
1105
1104
1088
1074
1068
1077
1087
1177
1219
1243
1279
1318
1342
1379
1409
1446
1471
1503
1606
1875
2449
3211
4095
4095
4095
3488
2885
2423
2055
1747
1489
1273
1141
1046
1015
1008
1088
1119
1118
1173
1149
1136
1142
1133
1153
1243
1270
1299
1330
1367
1402
1435
1470
1506
1530
1561
1589
1625
1776
2208
2975
4095
4095
4095
4095
3843
3021
2475
2047
1703
1407
1187
1046
979
976
1010
1049
1067
1056
1023
980
983
973
965
977
1005
1113
1147
1191
1250
1262
1318
1351
1375
1387
1436
1470
1520
1723
2250
3084
4095
4095
4095
4095
3455
2771
2278
1878
1579
1328
1106
961
897
880
898
939
976
991
1009
1004
990
993
1013
1087
1131
1155
1200
1228
1278
1328
1344
1389
1415
1475
1510
1599
1922
2496
3263
4095
4095
3968
3323
2795
2338
1954
1662
1424
1237
1093
1047
1023
1055
1123
1137
1167
1195
1173
1174
1168
1175
1202
1298
1307
1334
1367
1397
1424
1451
1474
1507
1534
1664
1985
2621
3553
4095
4095
4095
3615
2887
2391
1974
1649
1366
1169
1055
975
961
1036
1049
1120
1107
1088
1077
1035
1050
1040
1072
1136
1204
1231
1268
1293
1328
1357
1394
1424
1453
1525
1821
2450
3503
4095
4095
4095
4095
3298
2633
2165
1780
1479
1213
1033
909
882
883
909
955
985
982
976
950
939
943
958
1057
1090
1125
1171
1205
1247
1283
1318
1374
1419
1456
1469
1505
1535
1723
2253
3166
4095
4095
4095
4095
3773
2902
2370
1927
1597
1319
1112
973
917
927
945
1008
1022
1042
1023
1023
997
1001
983
1014
1100
1152
1183
1221
1246
1294
1328
1373
1395
1421
1451
1526
1876
2594
3841
4095
4095
4095
4064
3159
2497
2013
1648
1359
1125
960
890
874
906
978
1021
1041
1035
1008
969
957
963
979
1035
1114
1134
1168
1204
1259
1291
1327
1357
1395
1418
1437
1482
1584
1966
2674
3824
4095
4095
4095
3583
2806
2288
1860
1503
1251
1051
927
880
880
912
976
1043
1063
1141
1104
1090
1071
1077
1093
1101
1120
1168
1218
1252
1296
1335
1381
1413
1443
1492
1575
1836
2349
3006
3725
4035
3718
3152
2672
2258
1919
1638
1403
1235
1140
1117
1119
1173
1229
1271
1349
1327
1303
1255
1183
1200
1223
1248
1344
1373
1392
1413
1441
1475
1475
1555
1744
2173
2773
3420
3854
3664
3193
2733
2320
1962
1681
1446
1278
1178
1158
1174
1232
1295
1326
1328
1293
1280
1247
1225
1226
1232
1251
1344
1371
1392
1414
1436
1465
1522
1766
2306
3020
3990
4095
4095
3550
2889
2414
2003
1680
1398
1185
1058
989
989
1023
1072
1089
1083
1083
1065
1059
1047
1046
1088
1162
1191
1214
1242
1276
1307
1353
1389
1555
1986
2747
4019
4095
4095
4095
3779
2974
2437
2032
1681
1365
1113
942
815
771
777
795
834
848
868
868
879
895
987
1015
1049
1076
1114
1155
1168
1232
1272
1326
1339
1389
1454
1629
2086
2749
3734
4095
4095
4063
3365
2741
2320
1924
1602
1341
1130
1010
976
1003
1051
1114
1158
1251
1263
1278
1273
1267
1242
1232
1221
1210
1223
1227
1221
1232
1254
1264
1285
1331
1501
1941
2651
3749
4095
4095
4095
3459
2785
2319
1901
1562
1271
1041
894
833
841
877
927
959
986
983
956
944
935
944
962
1047
1094
1125
1166
1199
1230
1281
1298
1329
1367
1395
1451
1610
2039
2701
3777
4095
4095
4095
3733
2980
2451
2037
1680
1375
1162
1008
942
949
1023
1104
1217
1273
1276
1227
1125
1053
1002
994
983
971
1038
1130
1193
1220
1263
1286
1307
1343
1367
1395
1479
1696
2214
3010
4095
4095
4095
4095
3536
2815
2320
1939
1587
1311
1103
971
930
959
1003
1043
1062
1056
1015
994
963
931
922
935
949
1008
1084
1119
1186
1215
1242
1274
1313
1353
1369
1415
1459
1505
1746
2243
2986
4085
4095
4095
4095
3525
2858
2383
1993
1666
1371
1157
1011
944
959
997
1054
1073
1091
1059
1045
1008
996
986
1008
1023
1122
1169
1197
1232
1273
1311
1351
1378
1416
1429
1470
1488
1562
1795
2261
2933
3851
4095
4095
3882
3170
2666
2255
1887
1589
1323
1139
1023
981
989
1044
1103
1107
1125
1111
1099
1083
1086
1093
1120
1202
1233
1264
1303
1335
1362
1399
1440
1479
1490
1535
1558
1584
1614
1746
2080
2608
3253
3872
4059
3745
3203
2721
2330
1985
1691
1461
1285
1175
1162
1174
1246
1296
1306
1313
1296
1286
1258
1241
1244
1235
1249
1327
1366
1398
1419
1440
1462
1503
1527
1535
1567
1615
1786
2204
2775
3471
4046
4095
3686
3148
2657
2279
1935
1662
1429
1237
1133
1104
1115
1157
1202
1226
1219
1198
1169
1163
1167
1148
1166
1186
1264
1309
1344
1391
1378
1434
1460
1488
1488
1535
1600
1730
2087
2674
3420
4095
4095
4048
3438
2866
2429
2082
1766
1501
1299
1141
1088
1050
1067
1120
1143
1156
1142
1133
1110
1099
1092
1104
1130
1200
1254
1264
1312
1344
1375
1421
1438
1472
1501
1525
1568
1610
1781
2194
2835
3615
4095
4095
3913
3282
2729
2325
1985
1696
1447
1247
1138
1072
1062
1076
1121
1156
1174
1168
1169
1134
1123
1147
1147
1184
1274
1289
1326
1351
1379
1416
1456
1482
1520
1565
1578
1594
1624
1686
1936
2413
3060
3858
4095
4095
3723
3110
2631
2225
1893
1611
1393
1222
1121
1094
1105
1153
1200
1216
1211
1216
1212
1167
1168
1170
1175
1231
1291
1326
1325
1361
1399
1410
1453
1483
1508
1534
1570
1616
1810
2257
2864
3643
4095
4095
3664
3071
2592
2207
1882
1618
1391
1232
1137
1091
1104
1142
1189
1203
1214
1207
1188
1174
1168
1179
1197
1289
1303
1333
1351
1373
1419
1456
1486
1505
1530
1564
1617
1747
2122
2641
3199
3569
3534
3198
2768
2399
2074
1793
1578
1409
1283
1216
1200
1219
1263
1310
1410
1429
1415
1392
1374
1374
1354
1367
1392
1403
1442
1462
1485
1513
1535
1566
1603
1634
1791
2151
2613
3094
3348
3239
2916
2587
2254
2000
1741
1535
1411
1357
1334
1374
1463
1586
1629
1634
1599
1502
1439
1392
1370
1363
1373
1392
1426
1511
1521
1535
1535
1581
1625
1851
2336
2959
3681
4082
3921
3395
2879
2445
2073
1771
1527
1330
1187
1130
1099
1114
1164
1212
1235
1232
1198
1212
1190
1181
1203
1227
1314
1343
1364
1388
1399
1443
1472
1511
1661
2029
2606
3383
4095
4095
3855
3248
2703
2289
1933
1649
1413
1231
1113
1066
1063
1085
1124
1152
1168
1157
1141
1131
1124
1141
1154
1251
1279
1301
1329
1378
1392
1428
1460
1529
1679
2072
2621
3227
3696
3757
3311
2917
2511
2165
1863
1616
1391
1238
1147
1123
1142
1190
1232
1252
1259
1262
1238
1221
1221
1243
1275
1339
1361
1383
1410
1434
1463
1489
1531
1573
1623
1872
2336
2911
3505
3805
3578
3137
2725
2338
2007
1732
1507
1315
1199
1168
1157
1231
1269
1310
1392
1365
1339
1264
1193
1233
1233
1275
1367
1405
1414
1439
1467
1488
1514
1557
1586
1735
2113
2677
3399
3950
3993
3603
3057
2634
2229
1924
1648
1431
1250
1145
1119
1130
1168
1214
1240
1237
1217
1197
1199
1189
1194
1213
1279
1328
1351
1378
1413
1424
1474
1487
1518
1590
1807
2293
2933
3703
4095
4053
3527
2981
2517
2166
1853
1573
1351
1169
1091
1046
1045
1084
1110
1135
1142
1152
1123
1127
1119
1139
1191
1264
1280
1318
1341
1374
1424
1458
1483
1508
1535
1568
1607
1633
1650
1754
2081
2672
3419
4095
4095
4069
3448
2891
2453
2111
1808
1535
1339
1171
1088
1061
1084
1130
1138
1173
1168
1187
1166
1168
1170
1181
1260
1309
1319
1350
1381
1411
1442
1487
1508
1535
1569
1600
1633
1647
1680
1681
1702
1776
1984
2491
3185
3991
4095
4095
3668
3089
2631
2263
1919
1649
1416
1245
1155
1118
1136
1167
1219
1220
1213
1206
1172
1173
1178
1173
1199
1264
1317
1349
1382
1417
1442
1465
1504
1527
1565
1583
1592
1632
1691
1884
2321
2897
3501
3843
3745
3350
2896
2512
2185
1905
1668
1466
1296
1193
1148
1138
1171
1200
1232
1238
1250
1232
1235
1241
1259
1302
1345
1370
1392
1424
1445
1472
1506
1558
1567
1586
1611
1671
1787
2143
2622
3088
3383
3344
3056
2726
2410
2110
1872
1677
1488
1392
1317
1282
1280
1312
1366
1451
1487
1470
1450
1425
1346
1337
1360
1381
1463
1507
1535
1561
1579
1603
1632
1641
1687
1851
2220
2717
3202
3477
3362
3024
2683
2357
2057
1818
1627
1466
1359
1296
1293
1308
1355
1392
1442
1477
1457
1416
1333
1312
1313
1321
1362
1435
1473
1488
1520
1535
1555
1596
1739
2108
2645
3237
3649
3643
3325
2898
2506
2192
1893
1656
1465
1296
1191
1154
1152
1185
1246
1266
1339
1349
1338
1318
1295
1287
1294
1293
1333
1327
1387
1424
1457
1473
1533
1726
2135
2662
3186
3478
3392
3042
2688
2343
2032
1773
1553
1392
1267
1200
1182
1214
1273
1314
1418
1424
1408
1392
1372
1319
1272
1295
1343
1429
1450
1488
1499
1535
1567
1655
1917
2433
3061
3754
4016
3738
3250
2779
2379
2035
1751
1493
1316
1180
1105
1120
1141
1175
1225
1223
1215
1200
1203
1200
1185
1200
1209
1315
1339
1349
1375
1406
1436
1460
1527
1723
2178
2816
3618
4095
4095
3582
3039
2583
2194
1875
1603
1349
1177
1068
1023
1009
1074
1115
1158
1190
1168
1168
1155
1161
1152
1169
1247
1293
1303
1338
1367
1401
1426
1474
1495
1535
1682
2057
2646
3401
4026
4077
3581
3041
2605
2199
1877
1619
1377
1227
1125
1104
1104
1170
1228
1312
1347
1319
1295
1201
1181
1169
1199
1228
1323
1347
1387
1424
1445
1471
1491
1519
1565
1580
1687
1969
2519
3265
4046
4095
3856
3227
2737
2320
1985
1690
1435
1255
1136
1087
1083
1135
1200
1232
1285
1316
1279
1216
1157
1137
1149
1162
1230
1301
1360
1394
1431
1456
1498
1535
1583
1605
1616
1653
1688
1874
2315
3065
4095
4095
4095
4095
3550
2878
2390
1983
1653
1395
1186
1072
1033
1023
1077
1130
1169
1162
1135
1104
1079
1053
1066
1047
1092
1119
1199
1231
1264
1296
1361
1398
1439
1467
1497
1524
1562
1628
1851
2386
3193
4095
4095
4095
4095
3501
2851
2358
1971
1623
1357
1127
994
929
950
1008
1142
1338
1453
1561
1602
1557
1487
1356
1261
1170
1158
1105
1129
1194
1266
1312
1309
1341
1387
1365
1368
1518
1894
2608
3669
4095
4095
4095
3792
2992
2363
1890
1507
1203
909
715
649
640
720
834
1063
1078
1054
995
976
896
880
890
907
962
1017
1067
1103
1135
1221
1271
1317
1366
1437
1581
1939
2559
3597
4095
4095
4095
3754
2960
2398
1931
1517
1203
951
802
749
786
875
987
1190
1235
1237
1199
1127
1041
989
976
978
994
1003
1023
1116
1134
1143
1168
1213
1247
1301
1409
1616
2017
2426
2715
2782
2668
2432
2159
1907
1692
1523
1410
1340
1317
1420
1450
1554
1671
1667
1619
1600
1586
1609
1615
1483
1409
1394
1440
1461
1586
1616
1619
1651
1667
1749
1986
2451
3099
3877
4095
4078
3487
2933
2482
2101
1779
1505
1307
1184
1127
1143
1229
1326
1458
1511
1463
1424
1309
1262
1206
1206
1214
1221
1244
1322
1355
1394
1405
1612
2175
3210
4095
4095
4095
4095
4013
3056
2357
1835
1406
1086
826
690
598
606
667
754
878
993
1022
1015
994
976
983
966
989
1019
1041
1081
1121
1174
1207
1358
1763
2555
3885
4095
4095
4095
3777
2841
2267
1739
1358
1040
799
658
601
592
639
739
912
1040
1117
1140
1164
1162
1169
1168
1197
1199
1243
1266
1309
1373
1580
2177
3326
4095
4095
4095
4095
4095
3003
2301
1739
1280
942
707
573
550
590
698
848
1021
1087
1095
1075
1040
1018
991
973
993
1008
1040
1079
1150
1199
1344
1810
2849
4095
4095
4095
4095
4095
3809
2767
2064
1511
1081
752
527
398
343
384
495
619
803
886
928
917
869
861
839
842
860
902
944
994
1073
1281
1854
3071
4095
4095
4095
4095
4095
3506
2602
2000
1488
1087
784
605
527
576
739
951
1125
1203
1198
1138
1043
943
880
833
820
810
819
854
944
1003
1220
2016
3983
4095
4095
4095
4095
4095
3028
2241
1626
1166
813
547
370
271
282
366
464
529
561
557
496
464
427
428
429
482
592
652
729
780
853
912
1003
1173
1725
3035
4095
4095
4095
4095
4095
3415
2490
1840
1328
923
638
425
313
300
368
485
595
735
791
798
779
774
746
752
779
805
834
880
949
1013
1056
1111
1177
1232
1381
1885
2929
4095
4095
4095
4095
4095
3222
2410
1812
1335
960
694
541
474
495
576
688
829
915
935
943
918
883
875
877
892
912
966
1006
1067
1124
1167
1221
1258
1353
1611
2258
3455
4095
4095
4095
4095
3376
2558
1963
1488
1106
832
666
611
635
736
879
1044
1105
1123
1103
1058
983
934
903
934
957
1047
1083
1131
1190
1227
1249
1299
1435
1871
2746
4095
4095
4095
4095
4095
3174
2427
1877
1407
1072
798
644
585
595
687
784
937
1006
1001
976
944
929
858
838
861
945
1008
1040
1088
1131
1185
1235
1306
1513
2107
3250
4095
4095
4095
4095
4037
2986
2295
1776
1375
1045
821
661
611
634
702
787
894
961
992
975
958
930
927
915
939
961
1009
1049
1105
1152
1199
1248
1467
2061
3137
4095
4095
4095
4095
3877
2902
2245
1727
1321
1002
774
625
563
562
613
720
790
906
929
917
912
887
890
899
928
959
1023
1061
1111
1168
1234
1339
1668
2357
3517
4095
4095
4095
4071
3131
2480
1973
1573
1229
958
794
703
678
693
767
839
960
987
1010
987
959
949
959
983
1002
1050
1111
1146
1197
1258
1295
1386
1633
2206
3094
4095
4095
4095
4082
3201
2533
2061
1633
1306
1040
863
759
749
814
887
981
1097
1114
1109
1099
1069
1068
1072
1072
1102
1135
1170
1232
1263
1301
1335
1398
1437
1722
2303
3264
4095
4095
4095
4095
3209
2559
2071
1657
1335
1073
896
799
771
833
894
960
1019
1083
1061
1021
1008
914
939
947
1041
1122
1149
1202
1231
1277
1330
1366
1446
1737
2333
3292
4095
4095
4095
4039
3169
2544
2062
1683
1366
1089
924
830
787
816
868
938
971
1056
1050
1056
1007
1008
991
1008
1013
1079
1132
1159
1216
1267
1319
1354
1395
1439
1461
1610
2006
2749
4015
4095
4095
4095
3914
3053
2466
2009
1632
1322
1086
912
829
798
841
895
945
971
986
996
985
962
974
976
1008
1094
1118
1166
1204
1246
1292
1338
1382
1418
1451
1495
1512
1535
1584
1602
1703
2010
2621
3675
4095
4095
4095
4095
3317
2666
2192
1817
1506
1281
1118
1033
1039
1065
1123
1163
1159
1141
1106
1088
1039
1033
1018
1037
1056
1117
1168
1203
1237
1297
1327
1377
1406
1405
1433
1456
1498
1751
2323
3328
4095
4095
4095
4095
3726
2839
2288
1862
1505
1242
1000
850
785
780
828
873
912
953
958
946
938
955
955
1012
1063
1087
1107
1154
1220
1262
1319
1361
1383
1420
1460
1495
1511
1535
1623
1902
2507
3600
4095
4095
4095
4095
3419
2702
2209
1832
1491
1232
1017
895
837
821
881
943
980
1023
1115
1087
1023
934
939
963
1044
1110
1157
1200
1232
1290
1328
1381
1420
1465
1495
1533
1559
1598
1644
1830
2249
2848
3630
4095
3952
3423
2896
2433
2065
1767
1504
1317
1205
1116
1088
1103
1163
1203
1275
1328
1328
1312
1301
1241
1280
1268
1293
1315
1341
1377
1414
1443
1489
1503
1531
1573
1585
1613
1685
1894
2343
2941
3648
3954
3696
3216
2717
2314
1951
1667
1447
1295
1168
1123
1139
1187
1251
1342
1387
1389
1367
1328
1326
1251
1271
1291
1362
1419
1417
1482
1535
1570
1584
1619
1632
1637
1681
1856
2305
2995
3951
4095
4095
3986
3415
2887
2352
1932
1573
1306
1119
999
954
978
1019
1103
1146
1152
1106
1072
1040
997
1006
1037
1165
1168
1191
1231
1301
1343
1391
1405
1438
1487
1553
1819
2330
2981
3790
4095
4044
3456
2879
2417
2000
1698
1410
1212
1059
954
930
966
1010
1095
1175
1212
1219
1183
1163
1162
1166
1200
1218
1264
1304
1328
1379
1437
1456
1491
1520
1594
1811
2273
2898
3626
3923
3681
3174
2677
2265
1908
1638
1439
1264
1168
1120
1137
1202
1278
1386
1392
1427
1378
1353
1269
1248
1259
1264
1315
1404
1427
1451
1472
1488
1527
1567
1709
2115
2779
3717
4095
4095
3777
3069
2538
2112
1750
1466
1251
1101
995
976
1008
1081
1150
1243
1255
1232
1205
1168
1102
1105
1143
1230
1279
1309
1353
1380
1418
1454
1482
1520
1579
1767
2227
2947
3997
4095
4095
3862
3107
2546
2112
1765
1477
1237
1085
1008
971
1008
1060
1104
1147
1217
1209
1199
1173
1156
1164
1168
1200
1216
1264
1321
1360
1409
1443
1483
1507
1565
1616
1826
2323
3116
4095
4095
4095
3835
3088
2553
2112
1777
1484
1266
1111
1023
1018
1062
1117
1149
1161
1157
1136
1114
1104
1089
1109
1105
1208
1246
1276
1328
1348
1399
1433
1470
1488
1520
1535
1603
1801
2230
2911
3844
4095
4095
3748
3067
2555
2139
1808
1510
1312
1143
1044
1010
1040
1075
1136
1156
1168
1178
1139
1136
1141
1150
1194
1246
1285
1311
1353
1403
1425
1461
1499
1520
1535
1566
1594
1634
1824
2318
3114
4095
4095
4095
3998
3175
2559
2146
1797
1503
1274
1100
1010
989
1010
1073
1119
1150
1150
1141
1132
1116
1104
1109
1129
1190
1250
1281
1310
1360
1387
1427
1468
1490
1530
1535
1586
1610
1673
1938
2516
3366
4095
4095
4095
3760
3023
2480
2071
1743
1459
1247
1072
988
976
992
1057
1133
1165
1201
1196
1173
1146
1149
1139
1152
1179
1219
1264
1296
1342
1394
1447
1473
1499
1531
1570
1597
1617
1639
1670
1808
2179
2839
3878
4095
4095
4095
3360
2730
2262
1883
1597
1349
1181
1073
1051
1051
1106
1159
1182
1204
1196
1193
1165
1152
1152
1169
1253
1291
1315
1359
1379
1426
1458
1494
1523
1563
1581
1600
1629
1645
1663
1678
1804
2157
2768
3697
4095
4095
4073
3312
2721
2278
1914
1622
1393
1218
1104
1070
1056
1104
1159
1197
1245
1267
1251
1236
1219
1202
1199
1222
1248
1279
1331
1367
1412
1441
1485
1520
1557
1600
1618
1627
1645
1667
1709
1779
2080
2644
3439
4095
4095
4016
3326
2745
2307
1943
1655
1423
1264
1141
1097
1113
1168
1218
1264
1340
1339
1307
1280
1219
1202
1200
1217
1282
1359
1371
1411
1439
1475
1509
1535
1586
1601
1619
1635
1666
1680
1675
1706
1717
1827
2167
2722
3525
4095
4095
3792
3154
2640
2239
1899
1645
1425
1270
1186
1139
1152
1205
1275
1349
1395
1402
1362
1314
1254
1251
1259
1269
1331
1388
1413
1456
1477
1511
1553
1565
1600
1614
1626
1654
1664
1680
1706
1793
2090
2644
3397
4095
4095
3888
3270
2707
2289
1937
1665
1454
1281
1171
1129
1136
1168
1242
1273
1360
1354
1328
1296
1232
1222
1227
1253
1297
1360
1408
1442
1456
1503
1529
1573
1586
1607
1627
1647
1666
1700
1711
1722
1723
1803
2018
2499
3199
3994
4095
3997
3422
2849
2401
2043
1766
1535
1364
1232
1165
1168
1188
1232
1275
1354
1399
1371
1350
1324
1257
1250
1261
1296
1377
1413
1452
1476
1499
1535
1582
1602
1629
1652
1681
1686
1711
1727
1735
1744
1751
1767
1765
1812
1950
2323
2891
3641
4095
4016
3482
2925
2507
2129
1853
1632
1463
1315
1259
1211
1226
1280
1329
1435
1469
1445
1425
1405
1345
1315
1324
1353
1361
1445
1474
1503
1519
1557
1572
1600
1635
1648
1680
1680
1701
1712
1727
1742
1760
1779
1921
2279
2832
3417
3758
3642
3184
2751
2379
2067
1795
1597
1456
1345
1296
1282
1296
1360
1410
1499
1531
1511
1477
1454
1390
1378
1378
1395
1439
1507
1519
1565
1579
1613
1629
1645
1670
1680
1694
1712
1719
1730
1791
1979
2373
2903
3453
3647
3426
3015
2624
2274
1968
1744
1570
1419
1346
1298
1296
1325
1373
1445
1511
1516
1510
1477
1433
1377
1363
1387
1415
1470
1507
1534
1557
1581
1616
1641
1646
1671
1680
1693
1702
1728
1835
2099
2594
3183
3666
3722
3379
2940
2543
2203
1922
1699
1519
1390
1299
1278
1283
1313
1364
1415
1482
1466
1455
1415
1343
1327
1339
1358
1397
1467
1503
1520
1555
1571
1608
1623
1650
1657
1677
1685
1712
1733
1778
1999
2447
3030
3633
3839
3607
3116
2707
2351
2033
1794
1598
1431
1334
1265
1260
1296
1323
1377
1392
1441
1420
1405
1375
1309
1312
1328
1343
1409
1463
1475
1523
1535
1569
1601
1629
1633
1650
1665
1694
1701
1776
1979
2433
3030
3642
3903
3630
3184
2754
2382
2079
1813
1607
1438
1318
1250
1235
1265
1312
1332
1346
1362
1336
1325
1303
1297
1317
1328
1359
1417
1441
1463
1507
1523
1570
1584
1618
1626
1643
1669
1694
1706
1712
1717
1782
1965
2402
3021
3686
3973
3751
3239
2787
2389
2081
1826
1637
1458
1351
1280
1252
1271
1291
1337
1349
1364
1350
1325
1316
1305
1323
1334
1367
1424
1453
1467
1493
1520
1535
1574
1598
1631
1649
1664
1689
1707
1724
1720
1793
2003
2455
3083
3714
3969
3691
3227
2752
2375
2081
1825
1607
1433
1315
1251
1232
1263
1310
1337
1362
1369
1360
1331
1312
1311
1310
1328
1361
1438
1443
1473
1493
1534
1563
1590
1616
1630
1649
1667
1683
1693
1709
1718
1743
1770
1826
2078
2557
3151
3710
3805
3474
3005
2608
2256
1963
1732
1535
1413
1336
1289
1295
1335
1385
1462
1514
1501
1466
1445
1360
1344
1350
1360
1397
1472
1506
1520
1554
1591
1611
1629
1655
1663
1680
1702
1728
1742
1750
1776
1918
2315
2874
3519
3901
3759
3299
2831
2435
2125
1840
1638
1467
1335
1253
1237
1264
1306
1355
1416
1441
1425
1392
1347
1296
1296
1309
1343
1412
1466
1491
1524
1535
1569
1596
1623
1651
1680
1690
1711
1728
1743
1744
1748
1775
1875
2224
2771
3470
4007
3996
3541
3024
2601
2236
1936
1712
1521
1392
1294
1232
1234
1271
1328
1351
1417
1423
1397
1379
1307
1292
1299
1318
1375
1437
1446
1500
1511
1535
1574
1605
1637
1654
1668
1687
1697
1725
1738
1766
1776
1775
1834
2073
2503
3085
3649
3792
3482
3005
2597
2256
1973
1744
1577
1437
1359
1322
1311
1354
1405
1473
1535
1535
1523
1485
1424
1392
1387
1399
1429
1488
1524
1554
1584
1611
1647
1649
1653
1686
1710
1703
1739
1761
1798
1983
2402
2979
3541
3721
3472
3066
2659
2299
2010
1778
1602
1464
1363
1306
1327
1354
1393
1449
1503
1499
1469
1424
1351
1347
1347
1370
1388
1481
1505
1519
1557
1584
1612
1643
1664
1677
1696
1712
1713
1734
1762
1883
2251
2823
3536
4047
4016
3568
2992
2609
2240
1943
1719
1491
1351
1264
1217
1207
1243
1286
1307
1363
1393
1377
1371
1334
1333
1333
1339
1379
1390
1418
1463
1498
1530
1569
1613
1622
1645
1684
1681
1712
1728
1743
1776
1854
2138
2653
3285
3858
3895
3505
3024
2625
2267
1967
1747
1561
1406
1333
1286
1301
1328
1374
1411
1475
1477
1459
1431
1359
1337
1331
1367
1399
1490
1500
1535
1558
1599
1616
1649
1678
1681
1696
1712
1727
1759
1863
2196
2718
3375
3861
3822
3415
2973
2559
2229
1935
1725
1529
1373
1283
1244
1253
1291
1332
1369
1377
1385
1362
1344
1341
1338
1350
1429
1455
1484
1491
1509
1535
1580
1613
1644
1660
1664
1695
1717
1719
1743
1771
1781
1791
1843
2075
2555
3210
3827
4007
3663
3171
2733
2383
2064
1821
1616
1457
1346
1290
1261
1283
1326
1371
1389
1391
1390
1363
1367
1353
1358
1389
1450
1475
1489
1520
1535
1568
1620
1625
1663
1664
1690
1712
1729
1742
1750
1776
1793
1914
2250
2778
3351
3698
3531
3152
2761
2416
2117
1871
1697
1535
1433
1378
1355
1382
1426
1483
1567
1573
1535
1498
1424
1403
1398
1424
1444
1489
1532
1562
1591
1614
1631
1655
1680
1703
1715
1717
1727
1754
1854
2151
2629
3194
3600
3611
3295
2881
2543
2224
1960
1761
1579
1424
1343
1318
1327
1351
1407
1424
1491
1497
1469
1431
1371
1360
1366
1404
1454
1505
1531
1562
1584
1618
1647
1661
1683
1699
1714
1734
1741
1758
1760
1802
1927
2279
2830
3427
3756
3647
3249
2832
2480
2192
1936
1737
1567
1445
1366
1341
1341
1381
1410
1434
1443
1446
1424
1418
1407
1393
1409
1439
1503
1522
1535
1566
1590
1632
1645
1657
1682
1695
1726
1729
1754
1763
1787
1782
1795
1803
1838
1981
2359
2878
3451
3751
3555
3155
2754
2431
2128
1893
1732
1582
1462
1395
1379
1413
1449
1488
1521
1518
1491
1455
1456
1435
1443
1424
1453
1522
1557
1587
1595
1619
1651
1669
1687
1697
1718
1727
1744
1750
1781
1867
2160
2645
3191
3600
3606
3329
2945
2586
2286
2015
1808
1628
1488
1383
1343
1356
1382
1409
1443
1445
1431
1420
1399
1391
1405
1393
1413
1475
1506
1535
1562
1578
1601
1633
1653
1677
1697
1702
1719
1741
1749
1754
1771
1791
1822
1967
2323
2862
3461
3780
3675
3281
2879
2515
2217
1959
1746
1587
1451
1373
1331
1344
1389
1424
1452
1470
1431
1418
1414
1406
1403
1385
1421
1485
1520
1535
1558
1603
1619
1634
1658
1678
1698
1723
1733
1747
1776
1767
1793
1837
2035
2447
2989
3540
3776
3536
3095
2710
2384
2111
1875
1696
1535
1437
1373
1371
1403
1447
1476
1483
1483
1466
1437
1407
1391
1405
1407
1424
1471
1535
1561
1568
1597
1617
1647
1660
1682
1709
1714
1730
1740
1765
1783
1825
1967
2373
2907
3567
3947
3809
3378
2936
2543
2237
1968
1735
1565
1428
1344
1302
1307
1329
1361
1392
1415
1392
1373
1373
1360
1335
1360
1376
1443
1472
1495
1521
1568
1598
1616
1648
1659
1691
1696
1712
1729
1765
1773
1774
1776
1815
1837
1968
2315
2887
3541
3977
3871
3432
2933
2535
2224
1958
1754
1571
1457
1369
1338
1332
1371
1405
1427
1446
1439
1407
1396
1383
1368
1381
1396
1456
1501
1526
1535
1586
1606
1638
1670
1680
1697
1727
1744
1743
1754
1781
1783
1802
1890
2169
2674
3283
3772
3798
3431
2943
2559
2225
1953
1751
1599
1456
1376
1349
1361
1419
1456
1507
1535
1530
1498
1415
1382
1370
1392
1403
1424
1501
1535
1555
1601
1610
1641
1666
1683
1708
1714
1740
1751
1767
1784
1798
1873
2103
2590
3199
3796
3952
3626
3127
2699
2342
2032
1826
1663
1486
1409
1344
1333
1363
1382
1427
1447
1456
1435
1407
1392
1365
1383
1395
1410
1486
1520
1535
1556
1597
1613
1646
1667
1686
1711
1726
1740
1767
1763
1777
1786
1808
1842
1968
2329
2892
3519
3880
3707
3282
2823
2437
2123
1862
1689
1535
1433
1370
1368
1387
1441
1488
1571
1574
1558
1523
1437
1418
1402
1431
1438
1460
1530
1568
1607
1622
1653
1684
1685
1713
1727
1739
1744
1771
1859
2144
2640
3238
3737
3760
3397
2957
2559
2235
1974
1776
1583
1456
1364
1313
1325
1356
1411
1429
1443
1441
1428
1413
1383
1381
1383
1406
1471
1519
1518
1566
1579
1600
1648
1657
1677
1707
1741
1739
1747
1769
1830
2032
2503
3111
3797
4061
3806
3286
2826
2443
2128
1870
1676
1503
1363
1293
1264
1267
1307
1369
1382
1407
1376
1375
1353
1344
1347
1360
1422
1457
1488
1518
1554
1535
1616
1646
1661
1673
1701
1727
1712
1728
1770
1783
1805
1877
2156
2647
3318
3872
3943
3558
3090
2654
2310
2029
1802
1613
1456
1376
1318
1337
1374
1427
1455
1514
1499
1469
1387
1350
1345
1355
1361
1395
1478
1508
1535
1569
1609
1623
1663
1681
1679
1706
1727
1734
1753
1891
2268
2842
3553
4055
4010
3555
3057
2640
2286
1975
1741
1525
1380
1279
1246
1245
1285
1319
1345
1355
1350
1348
1314
1306
1299
1323
1349
1411
1446
1479
1503
1535
1567
1594
1618
1646
1669
1693
1720
1722
1734
1758
1894
2250
2809
3553
4080
4069
3631
3117
2674
2323
2000
1746
1555
1386
1279
1232
1239
1264
1293
1296
1306
1317
1302
1301
1290
1286
1296
1322
1395
1425
1462
1510
1531
1570
1600
1632
1661
1681
1709
1725
1759
1763
1776
1793
1824
1957
2315
2907
3641
4095
4042
3558
3064
2626
2249
1953
1701
1518
1387
1311
1281
1310
1353
1407
1442
1447
1433
1398
1364
1360
1341
1360
1377
1449
1488
1519
1570
1581
1605
1627
1643
1660
1683
1710
1723
1738
1758
1766
1776
1810
1929
2285
2896
3722
4095
4095
3875
3289
2771
2368
2013
1754
1535
1397
1290
1229
1231
1264
1278
1328
1350
1340
1337
1346
1301
1314
1327
1329
1411
1459
1479
1488
1535
1555
1594
1625
1655
1659
1690
1719
1743
1763
1785
1776
1795
1810
1835
1930
2256
2793
3535
4095
4095
3768
3211
2752
2357
2030
1773
1564
1409
1302
1258
1268
1307
1348
1408
1466
1463
1445
1422
1343
1325
1358
1364
1429
1488
1503
1535
1567
1606
1633
1644
1674
1696
1711
1739
1761
1776
1783
1834
2080
2582
3197
3856
4054
3771
3284
2812
2406
2068
1799
1611
1440
1306
1270
1266
1301
1360
1394
1463
1456
1439
1417
1385
1328
1342
1355
1408
1488
1503
1531
1565
1605
1638
1655
1680
1706
1726
1744
1761
1763
1777
1818
1978
2399
2958
3693
4095
3968
3497
2994
2558
2190
1903
1685
1501
1366
1296
1259
1277
1325
1374
1397
1465
1466
1454
1413
1360
1347
1360
1387
1472
1499
1531
1577
1605
1632
1660
1675
1696
1722
1741
1743
1762
1857
2112
2606
3204
3779
3904
3581
3131
2704
2342
2025
1776
1590
1431
1344
1298
1329
1358
1417
1466
1509
1499
1477
1397
1373
1369
1381
1383
1437
1499
1515
1535
1581
1607
1647
1661
1690
1692
1711
1740
1863
2192
2762
3472
4058
4095
3772
3221
2735
2332
2011
1761
1535
1382
1274
1226
1219
1245
1279
1306
1323
1334
1335
1306
1323
1299
1305
1343
1407
1438
1456
1509
1520
1559
1587
1616
1655
1673
1685
1712
1757
1951
2371
2992
3696
4059
3897
3415
2907
2503
2144
1879
1649
1467
1359
1264
1247
1264
1309
1347
1392
1389
1381
1361
1360
1347
1353
1365
1428
1447
1491
1520
1557
1566
1618
1632
1666
1680
1686
1721
1766
1959
2399
3034
3751
4095
3943
3443
2922
2499
2160
1883
1664
1478
1350
1264
1239
1255
1288
1329
1342
1354
1334
1316
1296
1296
1311
1316
1375
1424
1456
1483
1511
1535
1567
1615
1621
1659
1676
1708
1712
1733
1749
1774
1789
1861
2129
2643
3414
4095
4095
4028
3477
2897
2493
2128
1874
1639
1471
1328
1242
1223
1229
1275
1296
1309
1323
1312
1303
1283
1290
1290
1319
1397
1421
1439
1482
1508
1535
1573
1604
1644
1663
1692
1693
1722
1750
1753
1779
1809
1818
1838
1827
1849
1931
2176
2673
3433
4095
4095
3903
3344
2825
2433
2128
1846
1603
1467
1354
1295
1283
1322
1377
1399
1408
1409
1386
1357
1342
1343
1345
1367
1392
1459
1488
1519
1535
1573
1591
1621
1659
1680
1686
1725
1724
1757
1767
1758
1811
1942
2306
2898
3695
4095
4095
3777
3237
2726
2352
2036
1758
1535
1361
1273
1221
1202
1236
1284
1312
1312
1317
1323
1296
1282
1271
1296
1323
1404
1424
1445
1487
1520
1535
1581
1602
1641
1675
1685
1696
1729
1739
1757
1775
1789
1799
1815
1851
1990
2385
3020
3877
4095
4095
3750
3155
2679
2289
1974
1715
1505
1360
1263
1210
1220
1260
1313
1366
1413
1398
1378
1360
1294
1282
1291
1321
1410
1429
1481
1503
1535
1567
1600
1623
1669
1680
1698
1719
1734
1751
1765
1794
1808
1813
1837
1885
2087
2559
3249
4043
4095
4031
3408
2874
2454
2117
1840
1623
1455
1316
1264
1259
1293
1346
1380
1463
1475
1427
1371
1325
1311
1317
1339
1361
1446
1482
1501
1535
1570
1597
1632
1662
1683
1697
1712
1715
1739
1775
1776
1788
1883
2185
2715
3433
4047
4095
3742
3215
2736
2352
2070
1808
1598
1431
1309
1243
1231
1255
1301
1344
1408
1443
1424
1408
1370
1306
1310
1318
1355
1428
1456
1492
1527
1559
1600
1652
1650
1683
1693
1717
1744
1755
1775
1776
1814
1962
2317
2871
3517
3884
3686
3223
2801
2438
2115
1872
1680
1535
1430
1370
1360
1383
1431
1494
1585
1595
1582
1527
1456
1409
1398
1413
1417
1443
1509
1535
1569
1595
1633
1643
1670
1682
1719
1719
1734
1724
1762
1788
1885
2192
2709
3347
3826
3728
3348
2903
2531
2225
1964
1767
1605
1468
1378
1344
1344
1390
1430
1490
1535
1535
1506
1431
1401
1375
1377
1392
1410
1479
1520
1535
1567
1598
1616
1646
1669
1698
1707
1717
1739
1751
1776
1806
1911
2225
2786
3376
3709
3573
3176
2763
2416
2135
1903
1732
1571
1470
1391
1366
1389
1420
1484
1566
1596
1566
1535
1460
1427
1405
1421
1433
1460
1526
1554
1584
1619
1628
1657
1671
1699
1705
1713
1729
1749
1767
1794
1946
2320
2880
3469
3698
3501
3091
2718
2384
2111
1883
1694
1535
1424
1356
1360
1394
1426
1501
1567
1561
1522
1465
1414
1405
1394
1391
1411
1446
1507
1535
1555
1594
1623
1639
1662
1677
1711
1715
1728
1733
1744
1774
1776
1797
1898
2162
2665
3274
3700
3683
3327
2930
2583
2269
1995
1780
1602
1471
1397
1348
1335
1370
1431
1467
1556
1526
1518
1473
1413
1411
1380
1391
1404
1466
1520
1559
1571
1597
1626
1659
1675
1709
1728
1735
1745
1754
1790
1782
1791
1847
1981
2367
2897
3429
3623
3376
2983
2633
2322
2047
1830
1663
1520
1413
1389
1370
1419
1472
1573
1610
1598
1584
1527
1457
1461
1442
1452
1456
1475
1535
1589
1600
1632
1645
1678
1686
1710
1727
1727
1754
1769
1771
1840
2087
2531
3063
3506
3531
3226
2873
2557
2254
1998
1762
1614
1477
1379
1344
1359
1378
1439
1507
1573
1568
1535
1511
1472
1423
1421
1433
1456
1521
1535
1584
1598
1631
1651
1680
1693
1720
1725
1739
1751
1771
1783
1799
1813
1813
1840
1891
2119
2547
3138
3641
3649
3316
2895
2551
2240
1973
1785
1606
1483
1419
1378
1365
1417
1463
1565
1605
1598
1595
1562
1506
1459
1463
1463
1502
1530
1586
1609
1634
1648
1688
1697
1715
1749
1726
1775
1789
1810
1805
1821
1827
1819
1843
1939
2229
2707
3307
3709
3572
3185
2788
2430
2134
1882
1684
1535
1439
1377
1360
1379
1431
1513
1599
1625
1607
1582
1535
1489
1467
1462
1488
1494
1590
1613
1617
1651
1665
1698
1718
1726
1754
1779
1776
1808
1798
1821
1825
1849
1928
2238
2717
3282
3664
3562
3217
2790
2429
2149
1906
1716
1535
1433
1371
1338
1364
1407
1469
1579
1591
1602
1591
1565
1533
1471
1468
1484
1510
1575
1606
1627
1650
1675
1712
1739
1745
1759
1787
1793
1803
1817
1829
1854
1935
2206
2691
3277
3633
3495
3130
2736
2402
2122
1888
1711
1558
1431
1390
1367
1385
1447
1532
1627
1642
1638
1606
1587
1488
1479
1483
1487
1504
1575
1621
1639
1657
1682
1692
1721
1744
1761
1776
1794
1802
1809
1808
1872
2078
2514
3103
3629
3730
3437
3011
2642
2320
2042
1813
1631
1491
1386
1339
1326
1356
1422
1467
1558
1575
1557
1530
1520
1430
1421
1440
1457
1514
1574
1595
1616
1659
1667
1696
1714
1739
1759
1763
1776
1791
1804
1809
1829
1840
1968
2323
2843
3447
3682
3478
3086
2699
2367
2087
1853
1675
1522
1438
1377
1366
1389
1454
1535
1616
1623
1616
1587
1578
1489
1483
1497
1491
1516
1593
1617
1665
1682
1709
1723
1735
1776
1783
1786
1808
1801
1829
1874
2128
2591
3181
3621
3642
3311
2907
2553
2244
1964
1735
1574
1438
1360
1329
1333
1377
1422
1511
1561
1565
1535
1517
1510
1502
1487
1499
1507
1523
1561
1591
1617
1641
1666
1687
1722
1753
1762
1776
1791
1809
1791
1831
1834
1857
1991
2315
2841
3417
3719
3510
3122
2735
2413
2129
1901
1701
1535
1451
1386
1350
1370
1420
1488
1581
1607
1622
1597
1567
1535
1479
1482
1498
1516
1590
1632
1648
1680
1695
1698
1736
1755
1779
1799
1801
1831
1834
1842
1836
1889
1966
2277
2797
3333
3583
3399
3013
2649
2320
2078
1861
1686
1568
1463
1405
1399
1436
1473
1565
1644
1659
1663
1627
1598
1535
1511
1522
1527
1535
1631
1648
1670
1696
1711
1744
1757
1778
1788
1799
1808
1811
1836
1888
2107
2522
3056
3470
3482
3201
2813
2505
2219
1984
1776
1629
1515
1419
1377
1385
1403
1456
1564
1607
1631
1629
1611
1593
1565
1564
1581
1568
1597
1615
1632
1666
1685
1726
1733
1755
1778
1794
1808
1822
1840
1877
2013
2369
2839
3309
3377
3157
2800
2503
2206
1979
1819
1682
1535
1490
1465
1456
1506
1571
1648
1691
1712
1696
1668
1631
1557
1565
1561
1582
1598
1658
1687
1711
1735
1744
1759
1789
1803
1807
1840
1890
2126
2559
3083
3408
3378
3090
2814
2661
2290
1988
1766
1600
1479
1399
1353
1355
1391
1454
1535
1611
1601
1587
1568
1557
1527
1535
1535
1554
1591
1616
1615
1654
1674
1706
1727
1761
1769
1781
1795
1853
2023
2413
2897
3367
3444
3232
2909
2608
2313
2027
1827
1655
1535
1465
1426
1408
1445
1487
1535
1648
1647
1633
1600
1584
1488
1482
1493
1531
1605
1645
1664
1683
1699
1715
1770
1774
1754
1791
1808
1826
1812
1855
1905
2157
2608
3118
3485
3424
3174
2838
2519
2229
1970
1776
1626
1508
1453
1419
1433
1483
1531
1659
1657
1639
1621
1601
1507
1481
1498
1520
1535
1630
1650
1671
1690
1719
1744
1745
1772
1765
1804
1791
1799
1849
2005
2390
2868
3328
3517
3313
3005
2672
2356
2074
1863
1694
1573
1475
1415
1408
1433
1489
1533
1617
1632
1619
1583
1572
1453
1456
1487
1519
1594
1625
1659
1667
1675
1706
1718
1744
1774
1791
1787
1802
1813
1825
1839
1847
1887
2093
2511
3103
3710
3824
3554
3136
2739
2427
2130
1907
1706
1555
1451
1392
1374
1407
1470
1493
1597
1604
1583
1535
1455
1425
1419
1435
1457
1535
1594
1616
1637
1678
1702
1701
1729
1747
1759
1776
1793
1792
1808
1876
2141
2638
3314
3965
4095
3728
3194
2735
2355
2065
1841
1649
1494
1391
1341
1339
1367
1424
1456
1485
1455
1434
1415
1402
1390
1373
1387
1379
1506
1535
1583
1593
1623
1641
1665
1687
1707
1711
1735
1753
1850
2159
2731
3558
4095
4095
3918
3328
2785
2379
2064
1814
1600
1429
1313
1239
1202
1248
1267
1317
1331
1341
1337
1312
1296
1305
1296
1325
1426
1446
1475
1506
1527
1569
1597
1618
1648
1677
1685
1698
1744
1806
2014
2518
3204
3922
4095
3778
3218
2753
2355
2039
1806
1606
1450
1360
1287
1298
1319
1366
1430
1505
1508
1475
1361
1328
1323
1318
1329
1360
1459
1493
1519
1567
1577
1602
1646
1658
1670
1686
1706
1755
1925
2339
2971
3759
4095
3899
3367
2866
2468
2160
1884
1673
1475
1355
1279
1242
1266
1301
1351
1431
1465
1449
1425
1328
1294
1299
1312
1337
1453
1475
1499
1527
1559
1595
1621
1641
1674
1691
1699
1715
1751
1841
2163
2745
3522
4095
4095
3623
3065
2630
2279
1959
1715
1535
1371
1274
1241
1262
1286
1331
1394
1474
1461
1453
1409
1302
1314
1303
1327
1369
1469
1494
1520
1535
1595
1606
1637
1680
1683
1700
1723
1739
1759
1775
1846
2119
2643
3362
3970
4013
3531
3031
2618
2261
1955
1732
1532
1410
1316
1295
1316
1363
1440
1535
1569
1533
1509
1413
1355
1363
1357
1366
1392
1507
1533
1556
1580
1618
1626
1647
1681
1712
1707
1717
1786
2014
2522
3203
3850
4015
3666
3181
2722
2335
1999
1756
1555
1394
1296
1250
1245
1280
1338
1413
1490
1485
1451
1422
1323
1317
1310
1334
1371
1463
1488
1516
1566
1572
1600
1621
1661
1667
1689
1706
1729
1760
1884
2263
2891
3703
4095
4021
3521
3008
2531
2150
1869
1623
1450
1317
1235
1223
1235
1285
1351
1448
1488
1473
1453
1407
1323
1296
1315
1331
1405
1477
1506
1535
1571
1600
1629
1638
1672
1694
1705
1721
1744
1781
1908
2298
2911
3627
4095
3986
3514
2978
2511
2145
1835
1611
1425
1308
1236
1232
1263
1344
1408
1507
1491
1465
1435
1335
1305
1303
1328
1340
1405
1472
1501
1527
1561
1586
1615
1642
1667
1709
1712
1725
1828
2126
2672
3365
3984
4095
3630
2998
2539
2160
1849
1647
1445
1326
1232
1209
1215
1259
1338
1456
1482
1481
1451
1424
1418
1398
1392
1410
1425
1449
1477
1526
1535
1584
1635
1659
1683
1717
1731
1759
1776
1797
1837
2036
2515
3184
3865
4095
3792
3299
2832
2396
2070
1806
1591
1426
1330
1285
1277
1329
1370
1467
1529
1526
1509
1483
1424
1365
1376
1392
1413
1504
1531
1569
1589
1616
1633
1653
1680
1712
1713
1733
1754
1817
2058
2544
3213
3917
4074
3765
3246
2751
2325
1989
1745
1535
1408
1291
1257
1259
1303
1372
1463
1514
1507
1487
1468
1389
1345
1347
1370
1394
1507
1535
1557
1584
1621
1633
1674
1684
1718
1749
1759
1758
1779
1804
1935
2304
2885
3577
4033
3920
3482
2994
2545
2176
1894
1664
1482
1376
1309
1280
1291
1334
1385
1495
1531
1511
1511
1485
1453
1371
1360
1399
1429
1535
1563
1595
1617
1663
1673
1703
1725
1740
1761
1776
1788
1796
1826
1941
2278
2799
3346
3682
3541
3184
2820
2459
2141
1873
1695
1525
1424
1374
1369
1408
1453
1520
1619
1635
1616
1587
1504
1443
1456
1459
1485
1565
1614
1643
1658
1683
1689
1717
1738
1747
1759
1770
1799
1817
1923
2243
2734
3283
3577
3499
3171
2845
2481
2169
1901
1710
1563
1453
1390
1371
1408
1441
1495
1615
1605
1591
1570
1535
1467
1434
1456
1469
1535
1605
1635
1653
1664
1706
1709
1725
1762
1776
1779
1808
1799
1822
1841
1911
2143
2586
3142
3558
3597
3302
2946
2608
2291
2000
1802
1635
1520
1435
1392
1407
1453
1475
1586
1639
1635
1610
1586
1485
1467
1456
1488
1505
1610
1648
1674
1685
1710
1715
1741
1746
1777
1795
1802
1809
1822
1842
1941
2237
2703
3211
3485
3374
3057
2755
2453
2158
1914
1749
1599
1518
1455
1436
1470
1520
1625
1686
1681
1680
1636
1562
1510
1510
1517
1565
1581
1671
1682
1702
1718
1709
1740
1766
1777
1793
1799
1809
1835
1888
2128
2559
3084
3459
3466
3221
2925
2583
2256
2003
1803
1666
1533
1456
1424
1425
1459
1520
1601
1654
1641
1631
1597
1504
1482
1488
1499
1520
1625
1639
1659
1695
1712
1733
1741
1773
1776
1803
1822
1813
1822
1856
1988
2309
2785
3236
3437
3294
2978
2687
2398
2111
1889
1735
1611
1505
1460
1461
1479
1522
1638
1706
1691
1681
1663
1648
1535
1529
1559
1582
1648
1686
1701
1717
1730
1748
1771
1779
1794
1808
1811
1827
1919
2171
2618
3105
3417
3390
3128
2826
2499
2181
1936
1744
1611
1513
1439
1425
1439
1505
1535
1651
1666
1667
1637
1606
1529
1507
1514
1523
1563
1641
1649
1690
1715
1731
1743
1765
1776
1818
1834
1824
1834
1835
1859
1885
2065
2477
2979
3455
3583
3391
3041
2701
2368
2070
1859
1689
1573
1472
1430
1435
1446
1501
1575
1660
1653
1647
1613
1559
1490
1501
1520
1534
1638
1646
1686
1699
1719
1750
1753
1773
1790
1803
1814
1842
1837
1855
1968
2256
2702
3216
3467
3376
3089
2763
2448
2171
1920
1742
1603
1503
1456
1460
1483
1535
1648
1709
1712
1677
1657
1563
1524
1527
1527
1535
1584
1665
1679
1710
1719
1745
1760
1787
1787
1798
1808
1817
1849
2037
2448
2960
3430
3583
3413
3059
2681
2345
2068
1851
1679
1564
1465
1417
1425
1425
1477
1529
1619
1626
1609
1575
1514
1459
1465
1488
1514
1601
1630
1650
1675
1707
1727
1737
1759
1776
1791
1790
1805
1823
1997
2340
2822
3280
3435
3295
2995
2672
2325
2047
1840
1682
1563
1488
1455
1453
1468
1511
1610
1648
1693
1659
1634
1579
1517
1509
1514
1535
1612
1662
1680
1703
1742
1735
1755
1777
1789
1805
1821
1829
1853
1923
2203
2651
3159
3525
3504
3247
2882
2512
2202
1927
1737
1596
1483
1447
1416
1447
1504
1574
1665
1663
1648
1632
1610
1493
1486
1509
1514
1535
1625
1667
1679
1703
1727
1757
1761
1783
1799
1823
1814
1834
1861
1959
2272
2763
3349
3774
3703
3417
2965
2559
2213
1941
1731
1595
1478
1405
1364
1392
1421
1471
1585
1623
1605
1602
1577
1487
1454
1458
1487
1507
1609
1630
1662
1669
1699
1712
1751
1758
1777
1808
1807
1823
1824
1830
1931
2162
2688
3255
3664
3658
3328
2986
2605
2235
1955
1754
1585
1487
1413
1375
1375
1425
1487
1611
1655
1634
1629
1595
1535
1479
1479
1501
1535
1634
1653
1673
1691
1727
1731
1745
1779
1802
1807
1833
1837
1903
2162
2615
3136
3561
3569
3295
2927
2555
2221
1935
1727
1583
1488
1413
1392
1418
1463
1535
1649
1668
1648
1625
1611
1514
1489
1488
1522
1529
1639
1670
1680
1696
1712
1747
1757
1776
1790
1817
1935
2288
2800
3366
3726
3676
3315
2879
2471
2143
1868
1682
1527
1427
1360
1338
1360
1415
1476
1581
1610
1588
1578
1535
1495
1462
1424
1459
1495
1609
1623
1658
1673
1701
1710
1744
1749
1777
1819
2000
2442
3015
3616
3913
3743
3269
2779
2371
2054
1803
1632
1486
1365
1330
1319
1351
1402
1502
1587
1585
1569
1535
1519
1419
1421
1424
1456
1535
1606
1607
1634
1665
1687
1715
1725
1749
1856
2191
2745
3377
3895
3986
3547
3011
2559
2192
1910
1701
1509
1385
1319
1297
1327
1376
1434
1535
1567
1535
1514
1417
1371
1365
1381
1413
1485
1535
1567
1587
1618
1646
1660
1682
1715
1887
2288
2917
3762
4095
4095
3685
3050
2559
2179
1888
1663
1456
1328
1227
1209
1232
1260
1328
1360
1456
1424
1394
1370
1260
1242
1269
1327
1430
1472
1486
1532
1535
1590
1620
1637
1654
1699
1833
2247
2891
3919
4095
4095
4086
3305
2704
2279
1936
1666
1456
1293
1184
1125
1133
1163
1223
1279
1362
1375
1347
1323
1303
1214
1232
1252
1359
1424
1455
1488
1523
1557
1590
1616
1659
1840
2277
2980
4063
4095
4095
3925
3184
2615
2182
1857
1597
1363
1219
1139
1101
1136
1195
1247
1355
1387
1357
1319
1234
1200
1196
1207
1311
1379
1426
1453
1471
1515
1535
1581
1618
1693
1949
2551
3583
4095
4095
4095
3994
3152
2555
2138
1776
1498
1275
1114
1023
1013
1053
1090
1146
1194
1287
1253
1233
1211
1200
1200
1200
1226
1260
1305
1343
1392
1441
1479
1527
1557
1594
1734
2147
2931
4095
4095
4095
4095
3978
3089
2494
2064
1699
1424
1184
1051
958
949
994
1073
1119
1205
1249
1222
1199
1174
1167
1154
1175
1214
1251
1302
1345
1377
1427
1469
1523
1535
1601
1775
2251
3173
4095
4095
4095
4095
3953
3049
2448
1978
1628
1328
1115
989
938
961
1023
1104
1146
1263
1235
1222
1178
1078
1075
1078
1104
1232
1282
1327
1363
1407
1429
1478
1510
1534
1560
1584
1631
1801
2334
3461
4095
4095
4095
4095
4095
3332
2593
2081
1668
1333
1088
936
846
855
931
997
1055
1122
1150
1131
1094
1011
963
990
1023
1136
1179
1233
1267
1319
1360
1421
1451
1481
1520
1569
1579
1618
1633
1675
1759
2078
2800
4095
4095
4095
4095
4095
3889
2983
2363
1891
1524
1239
1018
922
873
897
967
1042
1145
1206
1178
1146
1063
1003
1008
1040
1123
1196
1260
1291
1330
1382
1413
1456
1497
1534
1571
1610
1618
1659
1690
1798
2161
2940
4095
4095
4095
4095
4095
3350
2626
2135
1742
1413
1168
1023
960
965
1018
1104
1210
1305
1277
1244
1168
1089
1077
1093
1110
1203
1276
1323
1344
1403
1433
1475
1505
1535
1579
1589
1613
1679
1897
2475
3568
4095
4095
4095
4095
3670
2880
2320
1893
1535
1264
1049
930
896
929
977
1069
1167
1232
1232
1201
1186
1147
1059
1066
1118
1222
1296
1315
1366
1407
1451
1486
1523
1559
1601
1634
1654
1678
1744
2010
2608
3722
4095
4095
4095
4095
3331
2672
2188
1801
1463
1221
1067
958
935
987
1063
1135
1267
1301
1296
1243
1219
1218
1205
1205
1232
1267
1302
1367
1415
1446
1489
1525
1579
1616
1637
1666
1691
1785
2062
2639
3550
4095
4095
4095
3413
2798
2339
1980
1684
1454
1249
1138
1082
1114
1171
1264
1387
1423
1410
1396
1365
1264
1248
1248
1279
1379
1433
1456
1488
1528
1562
1584
1601
1639
1655
1704
1861
2316
3095
4095
4095
4095
3920
3200
2638
2174
1814
1521
1296
1143
1053
1023
1055
1118
1198
1321
1370
1342
1323
1289
1279
1264
1271
1274
1297
1347
1387
1429
1482
1511
1535
1588
1627
1645
1687
1760
2082
2677
3634
4095
4095
4095
3610
2916
2415
1997
1682
1428
1251
1104
1047
1034
1088
1168
1264
1345
1363
1347
1328
1307
1296
1285
1309
1314
1349
1386
1411
1445
1483
1525
1568
1602
1617
1671
1840
2281
2977
4030
4095
4095
3863
3167
2599
2153
1799
1533
1329
1175
1099
1083
1126
1179
1237
1362
1383
1381
1362
1339
1326
1303
1317
1334
1360
1390
1424
1468
1495
1535
1575
1609
1731
2079
2657
3440
4095
4095
3849
3204
2658
2224
1878
1603
1365
1211
1106
1069
1077
1136
1198
1299
1359
1362
1360
1337
1339
1345
1328
1354
1371
1403
1455
1488
1523
1558
1613
1709
1989
2486
3109
3638
3711
3405
2989
2559
2208
1895
1648
1456
1318
1227
1215
1232
1290
1344
1478
1510
1505
1498
1475
1449
1450
1451
1451
1456
1488
1526
1557
1579
1620
1662
1853
2265
2861
3534
3919
3775
3329
2828
2399
2064
1762
1534
1360
1238
1168
1173
1229
1290
1404
1472
1477
1456
1426
1411
1396
1392
1392
1392
1434
1455
1488
1506
1535
1583
1687
2044
2715
3677
4095
4095
4095
3443
2785
2315
1957
1657
1433
1248
1135
1073
1086
1143
1182
1232
1242
1222
1187
1169
1171
1168
1171
1232
1319
1360
1392
1426
1474
1492
1535
1565
1584
1675
1983
2692
3927
4095
4095
4095
3890
3061
2485
2039
1712
1453
1233
1079
998
982
1045
1111
1178
1287
1281
1250
1222
1109
1122
1143
1234
1328
1347
1377
1399
1419
1424
1463
1463
1495
1488
1520
1621
1983
2772
4095
4095
4095
4095
4095
3344
2629
2143
1776
1495
1243
1040
919
877
883
927
995
1051
1133
1152
1123
1081
990
951
973
1008
1136
1195
1248
1275
1307
1345
1369
1392
1418
1451
1467
1503
1664
2064
2667
3305
3768
3628
3067
2559
2160
1821
1574
1409
1286
1185
1139
1152
1200
1269
1398
1471
1511
1535
1535
1557
1535
1559
1534
1535
1563
1592
1617
1638
1666
1711
1712
1722
1743
1766
1823
1914
2077
2343
2796
3459
3843
3741
3311
2832
2426
2091
1815
1584
1430
1296
1242
1243
1283
1364
1463
1526
1519
1499
1440
1370
1351
1357
1349
1378
1392
1445
1477
1488
1504
1525
1535
1595
1657
1840
2256
2698
3058
3181
2995
2702
2371
2069
1815
1599
1439
1333
1266
1269
1324
1401
1520
1597
1627
1616
1588
1535
1472
1439
1439
1439
1471
1497
1535
1567
1575
1598
1603
1664
1833
2203
2717
3235
3479
3359
3010
2640
2307
1981
1721
1511
1371
1259
1211
1207
1242
1317
1433
1486
1510
1499
1499
1473
1460
1434
1454
1443
1456
1483
1489
1520
1535
1586
1677
1917
2362
2887
3347
3462
3210
2832
2451
2112
1840
1612
1430
1303
1232
1194
1226
1286
1371
1473
1519
1520
1516
1489
1447
1409
1394
1402
1430
1477
1507
1525
1555
1595
1690
1973
2501
3178
3798
3959
3644
3088
2614
2239
1891
1614
1402
1216
1136
1074
1103
1168
1258
1350
1403
1421
1399
1367
1318
1266
1264
1277
1296
1370
1407
1439
1465
1520
1535
1599
1795
2225
2902
3841
4095
4095
3937
3255
2702
2285
1906
1587
1323
1136
1022
976
995
1053
1137
1232
1281
1275
1249
1216
1141
1125
1139
1154
1218
1264
1293
1328
1360
1401
1431
1471
1505
1591
1861
2424
3269
4095
4095
4095
4095
3325
2705
2250
1863
1531
1264
1078
973
958
990
1072
1152
1231
1258
1239
1187
1123
1084
1059
1075
1063
1106
1183
1232
1266
1299
1341
1370
1405
1437
1459
1477
1514
1535
1623
1863
2448
3389
4095
4095
4095
4095
3745
2935
2416
1958
1600
1303
1071
938
893
922
970
1058
1118
1170
1168
1153
1087
1023
1020
1018
1023
1074
1136
1174
1217
1268
1311
1337
1367
1403
1454
1478
1497
1535
1587
1744
2132
2874
4060
4095
4095
4095
3927
3103
2525
2074
1683
1353
1119
961
889
893
939
1023
1104
1203
1216
1200
1175
1106
1067
1061
1071
1090
1153
1193
1228
1269
1327
1349
1381
1434
1456
1488
1520
1557
1609
1767
2192
2907
3995
4095
4095
4095
3446
2769
2287
1829
1500
1274
1069
879
830
891
960
1061
1197
1287
1328
1360
1323
1290
1201
1184
1207
1300
1353
1394
1408
1433
1481
1497
1525
1535
1566
1584
1577
1587
1609
1693
1977
2499
3242
4095
4095
4095
3831
3216
2671
2246
1859
1521
1264
1072
976
923
959
1008
1059
1079
1099
1075
1058
1008
976
978
960
989
1041
1119
1137
1181
1205
1250
1274
1306
1343
1409
1555
1898
2433
3001
3579
3746
3490
3062
2639
2256
1916
1632
1383
1174
1041
987
993
1059
1127
1220
1262
1279
1245
1217
1152
1133
1136
1152
1168
1230
1267
1312
1328
1376
1383
1415
1461
1475
1499
1518
1703
2046
2595
3267
3897
4035
3645
3092
2615
2202
1856
1554
1345
1154
1043
976
972
1010
1089
1209
1296
1310
1324
1313
1295
1275
1273
1302
1313
1365
1379
1377
1392
1424
1458
1498
1525
1564
1589
1595
1643
1789
2129
2640
3259
3736
3729
3385
2903
2495
2157
1822
1570
1372
1227
1129
1093
1098
1179
1275
1403
1440
1467
1455
1424
1391
1333
1314
1319
1344
1355
1431
1443
1461
1473
1488
1523
1597
1827
2321
3007
3878
4095
4095
3826
3178
2642
2231
1845
1535
1291
1091
945
880
903
933
1034
1110
1176
1167
1168
1141
1085
1041
1046
1052
1113
1181
1202
1246
1275
1315
1357
1398
1470
1648
2071
2711
3583
4095
4095
4095
3399
2800
2321
1915
1582
1298
1076
912
829
823
854
927
1035
1135
1167
1173
1138
1121
1088
1091
1096
1116
1139
1181
1232
1277
1323
1360
1402
1442
1463
1520
1579
1726
2128
2755
3617
4095
4095
3983
3275
2713
2274
1904
1583
1319
1113
978
911
906
959
1023
1162
1236
1248
1243
1227
1187
1172
1104
1134
1146
1222
1263
1297
1329
1374
1403
1438
1487
1495
1530
1577
1596
1644
1792
2171
2799
3681
4095
4095
4006
3284
2713
2253
1891
1575
1299
1126
975
927
955
1003
1102
1232
1280
1294
1270
1231
1187
1143
1124
1131
1175
1245
1280
1313
1360
1379
1424
1451
1478
1511
1554
1574
1585
1654
1778
2159
2733
3565
4095
4095
3984
3314
2782
2326
1965
1627
1378
1168
1040
952
945
977
1077
1170
1239
1264
1239
1232
1200
1194
1123
1137
1152
1231
1273
1310
1351
1398
1419
1456
1487
1516
1535
1575
1616
1624
1691
1891
2331
2939
3681
4095
4025
3522
2974
2529
2155
1837
1575
1343
1180
1077
1019
1038
1086
1159
1253
1309
1312
1303
1281
1255
1247
1230
1245
1262
1286
1326
1355
1391
1441
1471
1520
1535
1578
1601
1635
1651
1664
1738
1982
2437
3039
3686
3931
3724
3221
2736
2352
1997
1712
1482
1290
1179
1114
1108
1153
1234
1333
1397
1424
1401
1364
1307
1275
1239
1262
1275
1316
1371
1411
1426
1455
1491
1515
1535
1579
1600
1635
1758
2065
2559
3169
3696
3830
3508
3057
2637
2246
1937
1687
1434
1264
1149
1097
1088
1136
1181
1267
1341
1349
1335
1302
1283
1233
1211
1221
1239
1327
1350
1392
1421
1458
1494
1509
1535
1587
1600
1621
1644
1708
1927
2381
2935
3565
3920
3781
3358
2893
2512
2154
1845
1597
1387
1211
1115
1062
1092
1140
1203
1289
1343
1333
1335
1298
1266
1264
1264
1265
1281
1311
1355
1389
1424
1453
1493
1522
1535
1587
1623
1631
1655
1695
1840
2181
2703
3249
3710
3714
3343
2893
2511
2164
1878
1631
1433
1283
1195
1178
1175
1211
1311
1405
1429
1438
1411
1378
1302
1297
1301
1328
1346
1415
1437
1476
1488
1517
1535
1586
1595
1614
1665
1794
2149
2671
3245
3705
3707
3373
2943
2534
2201
1909
1655
1446
1279
1182
1135
1162
1207
1263
1340
1377
1367
1354
1307
1246
1232
1232
1260
1309
1358
1398
1423
1471
1488
1505
1535
1568
1599
1677
1885
2327
2877
3458
3829
3698
3319
2865
2496
2165
1879
1621
1402
1233
1143
1093
1089
1153
1202
1247
1311
1305
1281
1273
1237
1181
1199
1214
1280
1329
1365
1404
1434
1470
1495
1535
1535
1603
1650
1789
2131
2644
3226
3653
3675
3344
2958
2559
2234
1939
1691
1477
1325
1200
1138
1152
1190
1251
1297
1362
1366
1338
1312
1257
1233
1254
1268
1331
1374
1421
1447
1477
1502
1532
1558
1584
1607
1728
1977
2448
2994
3494
3682
3466
3069
2666
2318
2019
1750
1527
1333
1215
1165
1165
1201
1274
1335
1389
1382
1353
1277
1248
1220
1235
1232
1279
1360
1395
1407
1457
1462
1489
1531
1559
1625
1824
2235
2799
3373
3767
3693
3354
2898
2525
2194
1911
1639
1417
1264
1155
1114
1139
1171
1238
1255
1275
1249
1237
1210
1214
1199
1204
1233
1302
1340
1363
1414
1451
1467
1502
1520
1564
1574
1600
1699
1972
2461
3085
3759
4095
3949
3451
2935
2528
2163
1863
1597
1371
1211
1103
1075
1085
1117
1166
1187
1200
1189
1175
1177
1163
1165
1168
1218
1275
1308
1347
1369
1409
1443
1472
1520
1534
1563
1593
1616
1633
1663
1663
1713
1879
2297
2854
3623
4095
4095
3794
3197
2736
2350
2006
1730
1490
1299
1168
1105
1087
1133
1178
1215
1253
1253
1249
1226
1204
1191
1187
1201
1255
1306
1343
1369
1403
1442
1471
1509
1535
1535
1568
1598
1629
1669
1813
2177
2743
3461
4095
4095
3885
3295
2791
2362
2005
1717
1460
1259
1122
1085
1081
1139
1203
1234
1250
1233
1232
1194
1165
1161
1159
1165
1211
1264
1297
1335
1380
1399
1431
1461
1504
1525
1535
1580
1654
1906
2364
2992
3711
4095
4095
3554
3035
2595
2221
1896
1627
1379
1217
1099
1069
1075
1127
1164
1200
1203
1210
1171
1168
1154
1167
1168
1173
1254
1281
1311
1361
1379
1407
1444
1483
1495
1520
1554
1581
1699
1970
2480
3087
3687
3901
3658
3223
2784
2421
2105
1845
1605
1406
1251
1155
1135
1167
1200
1235
1267
1296
1258
1239
1216
1216
1199
1202
1243
1263
1328
1360
1389
1415
1450
1479
1518
1535
1554
1584
1648
1808
2212
2800
3440
3931
3855
3466
2975
2594
2229
1923
1686
1458
1291
1200
1165
1185
1250
1292
1362
1392
1360
1311
1238
1221
1203
1209
1213
1242
1313
1344
1379
1424
1427
1466
1474
1502
1526
1615
1843
2329
2950
3691
4045
3920
3434
2935
2539
2201
1892
1633
1410
1226
1120
1075
1088
1147
1186
1201
1201
1191
1175
1150
1117
1111
1103
1115
1159
1241
1278
1325
1367
1412
1443
1488
1513
1563
1579
1606
1667
1747
1892
2251
2859
3637
4095
4063
3548
3014
2593
2219
1925
1725
1520
1357
1269
1329
1220
1109
1110
1153
1174
1166
1142
1141
1142
1134
1153
1221
1269
1298
1328
1361
1392
1419
1472
1503
1531
1535
1563
1585
1697
2054
2663
3440
4095
4095
3806
3202
2672
2263
1925
1639
1413
1236
1141
1123
1134
1181
1274
1409
1470
1459
1418
1405
1328
1266
1215
1200
1194
1221
1233
1329
1371
1428
1472
1488
1509
1520
1586
1718
2091
2636
3255
3690
3631
3232
2795
2398
2061
1785
1535
1358
1215
1111
1074
1072
1119
1173
1222
1303
1298
1273
1248
1237
1173
1187
1189
1277
1329
1381
1422
1473
1490
1525
1575
1584
1648
1821
2202
2704
3259
3597
3484
3158
2762
2421
2129
1872
1657
1458
1292
1192
1145
1147
1203
1276
1347
1379
1362
1331
1253
1198
1190
1197
1218
1267
1341
1383
1411
1430
1439
1456
1473
1616
1935
2522
3248
3938
4095
3736
3195
2704
2338
1990
1742
1467
1238
1093
983
925
917
965
998
1067
1152
1178
1168
1177
1157
1154
1137
1171
1200
1237
1275
1303
1360
1409
1470
1535
1781
2219
2757
3250
3472
3297
2937
2555
2221
1938
1697
1507
1349
1235
1166
1136
1149
1200
1252
1357
1408
1414
1413
1412
1407
1398
1395
1423
1459
1488
1503
1535
1577
1600
1653
1843
2255
2837
3429
3741
3549
3061
2627
2252
1915
1663
1455
1299
1200
1145
1138
1175
1239
1345
1411
1429
1420
1398
1401
1376
1367
1376
1383
1429
1456
1481
1519
1534
1589
1664
1936
2459
3169
3914
4095
3725
3141
2639
2224
1904
1633
1415
1262
1143
1083
1072
1095
1168
1227
1327
1350
1343
1330
1327
1339
1328
1331
1361
1379
1413
1456
1502
1535
1583
1612
1649
1802
2192
2815
3568
4065
3888
3344
2822
2385
2014
1727
1504
1335
1200
1138
1089
1116
1168
1218
1337
1375
1395
1390
1392
1387
1386
1392
1403
1429
1462
1500
1535
1578
1611
1648
1669
1686
1714
1755
1903
2295
2911
3681
4048
3817
3278
2779
2368
2026
1753
1568
1386
1274
1210
1209
1223
1279
1343
1442
1472
1477
1471
1443
1441
1442
1434
1435
1441
1469
1517
1534
1579
1609
1621
1648
1693
1710
1713
1744
1891
2293
2916
3734
4095
4035
3471
2896
2479
2107
1839
1600
1391
1296
1203
1166
1179
1223
1278
1383
1419
1440
1430
1424
1405
1403
1395
1402
1424
1438
1471
1501
1535
1563
1604
1631
1661
1670
1691
1718
1741
1765
1770
1899
2233
2854
3703
4095
4095
3699
3058
2559
2155
1859
1621
1430
1289
1200
1168
1148
1200
1245
1338
1407
1447
1466
1447
1424
1425
1412
1392
1398
1425
1456
1488
1514
1535
1584
1600
1623
1660
1669
1684
1727
1851
2222
2755
3413
3818
3711
3248
2783
2383
2055
1762
1577
1393
1285
1211
1214
1215
1263
1327
1429
1465
1490
1469
1450
1441
1431
1427
1441
1456
1480
1505
1535
1535
1591
1617
1645
1683
1753
2017
2487
3136
3729
3911
3549
3026
2600
2220
1904
1653
1466
1319
1217
1169
1166
1209
1245
1331
1403
1425
1441
1439
1446
1419
1419
1434
1439
1457
1482
1517
1535
1568
1613
1641
1667
1681
1771
2001
2477
3067
3615
3729
3421
2945
2534
2175
1875
1661
1484
1341
1265
1232
1230
1251
1296
1370
1440
1488
1499
1485
1457
1445
1457
1453
1467
1482
1505
1535
1569
1603
1632
1651
1663
1719
1923
2372
2975
3638
3873
3599
3088
2647
2258
1936
1690
1485
1342
1232
1196
1188
1219
1275
1358
1424
1437
1452
1431
1405
1402
1389
1392
1392
1430
1456
1476
1506
1535
1573
1613
1626
1688
1842
2242
2823
3504
3883
3669
3169
2736
2334
2011
1759
1533
1378
1249
1185
1163
1177
1218
1272
1357
1402
1419
1388
1382
1375
1344
1361
1393
1408
1424
1456
1511
1521
1567
1605
1640
1667
1719
1931
2381
2928
3439
3540
3229
2826
2457
2122
1859
1655
1479
1351
1272
1249
1260
1296
1360
1455
1503
1514
1506
1472
1455
1419
1389
1410
1436
1478
1525
1535
1586
1613
1638
1649
1675
1789
2103
2640
3280
3766
3689
3282
2832
2435
2112
1838
1621
1443
1298
1221
1183
1193
1253
1298
1371
1399
1407
1387
1361
1357
1348
1347
1352
1382
1410
1447
1469
1505
1559
1586
1616
1629
1665
1821
2209
2785
3488
3899
3778
3314
2827
2448
2126
1824
1616
1415
1288
1194
1170
1158
1205
1248
1297
1349
1361
1351
1343
1338
1303
1326
1319
1359
1392
1427
1450
1486
1520
1558
1589
1621
1643
1687
1857
2242
2777
3347
3583
3405
2999
2627
2276
1981
1746
1553
1399
1317
1252
1248
1283
1333
1407
1483
1482
1471
1458
1425
1382
1363
1385
1395
1450
1498
1488
1535
1582
1606
1628
1648
1681
1843
2246
2790
3376
3657
3462
3067
2659
2330
2028
1787
1589
1413
1291
1226
1216
1232
1271
1329
1391
1408
1405
1399
1366
1361
1360
1363
1370
1396
1433
1467
1502
1535
1584
1600
1618
1647
1680
1840
2219
2768
3376
3789
3674
3213
2779
2409
2112
1826
1631
1461
1327
1225
1186
1183
1227
1280
1313
1367
1367
1350
1341
1348
1339
1359
1360
1393
1419
1462
1492
1535
1567
1591
1623
1641
1664
1717
1875
2239
2739
3217
3423
3210
2873
2512
2202
1936
1744
1593
1456
1365
1315
1312
1335
1416
1477
1533
1535
1527
1467
1439
1377
1405
1418
1456
1505
1531
1567
1584
1627
1633
1674
1696
1817
2139
2643
3217
3648
3613
3270
2864
2514
2230
1968
1751
1567
1405
1309
1250
1237
1278
1331
1369
1438
1424
1408
1389
1361
1309
1299
1330
1328
1362
1394
1430
1447
1482
1498
1535
1635
1901
2368
2960
3581
3875
3699
3280
2858
2448
2124
1843
1607
1390
1228
1131
1086
1085
1115
1168
1203
1262
1279
1281
1266
1280
1275
1290
1312
1331
1374
1413
1455
1500
1535
1578
1645
1807
2210
2729
3235
3531
3439
3107
2739
2391
2069
1803
1579
1403
1286
1225
1200
1234
1293
1365
1436
1454
1447
1419
1401
1382
1379
1393
1409
1456
1479
1504
1519
1558
1594
1613
1671
1829
2206
2722
3283
3683
3630
3281
2873
2509
2175
1891
1665
1456
1315
1227
1200
1217
1282
1328
1402
1424
1403
1399
1354
1315
1310
1313
1342
1419
1440
1463
1507
1534
1574
1597
1626
1703
1901
2325
2918
3564
3902
3788
3322
2887
2497
2159
1859
1606
1408
1265
1175
1130
1150
1205
1264
1323
1350
1360
1333
1314
1318
1313
1312
1338
1360
1367
1424
1456
1498
1535
1572
1603
1632
1655
1707
1852
2235
2800
3439
3861
3795
3408
2939
2547
2207
1897
1649
1447
1302
1212
1166
1152
1218
1261
1327
1373
1376
1363
1347
1344
1357
1355
1367
1362
1405
1428
1479
1519
1535
1584
1610
1645
1670
1685
1723
1733
1762
1839
2107
2587
3131
3661
3781
3504
3117
2729
2367
2065
1797
1589
1410
1290
1229
1206
1245
1274
1361
1420
1438
1429
1426
1407
1392
1393
1393
1424
1454
1467
1509
1535
1584
1616
1635
1676
1686
1705
1727
1744
1749
1803
1975
2331
2827
3294
3526
3391
3038
2703
2397
2128
1869
1663
1502
1393
1328
1312
1354
1391
1449
1535
1535
1535
1505
1477
1445
1424
1430
1456
1488
1535
1567
1605
1628
1643
1675
1711
1712
1739
1747
1795
2021
2444
2919
3376
3519
3327
2994
2657
2326
2039
1814
1609
1454
1354
1299
1278
1306
1364
1424
1483
1495
1488
1494
1466
1457
1440
1439
1456
1463
1499
1534
1557
1592
1616
1646
1641
1696
1709
1729
1775
1895
2203
2702
3248
3621
3618
3318
2959
2583
2263
1989
1744
1569
1412
1309
1257
1253
1275
1328
1377
1452
1467
1467
1452
1435
1431
1434
1427
1466
1478
1510
1535
1570
1599
1643
1655
1681
1712
1716
1749
1751
1831
2058
2463
2958
3312
3394
3146
2847
2544
2272
2020
1789
1606
1499
1408
1351
1355
1407
1455
1535
1582
1599
1587
1574
1535
1487
1479
1467
1494
1535
1584
1626
1633
1654
1677
1695
1718
1733
1774
1925
2277
2767
3248
3494
3419
3148
2793
2447
2144
1887
1701
1520
1406
1335
1310
1319
1360
1414
1488
1511
1502
1497
1489
1477
1424
1422
1425
1456
1517
1523
1572
1610
1629
1661
1678
1719
1725
1729
1747
1787
1898
2231
2733
3291
3693
3714
3401
2995
2637
2279
2000
1776
1593
1421
1329
1268
1263
1296
1346
1385
1447
1466
1460
1451
1429
1426
1427
1426
1437
1467
1489
1520
1535
1588
1621
1667
1681
1687
1723
1743
1771
1773
1782
1807
1840
2032
2437
2966
3461
3621
3398
3024
2704
2385
2095
1861
1680
1516
1424
1364
1354
1374
1440
1502
1559
1583
1577
1535
1522
1483
1456
1454
1472
1498
1568
1600
1616
1634
1661
1682
1697
1728
1745
1757
1775
1854
2134
2583
3129
3483
3542
3315
2963
2601
2271
1972
1766
1594
1456
1351
1303
1326
1351
1392
1472
1535
1520
1524
1499
1479
1466
1439
1419
1453
1492
1535
1574
1602
1632
1646
1668
1690
1715
1731
1753
1774
1773
1814
1894
2192
2699
3277
3728
3827
3513
3088
2690
2314
2030
1791
1589
1448
1333
1305
1251
1285
1349
1403
1463
1478
1475
1470
1447
1434
1440
1447
1463
1463
1488
1534
1559
1600
1620
1655
1675
1712
1730
1747
1765
1776
1792
1872
2117
2558
3084
3473
3536
3289
2919
2619
2288
2025
1793
1614
1483
1394
1342
1353
1403
1450
1535
1591
1586
1571
1567
1520
1471
1460
1470
1481
1527
1583
1600
1632
1649
1676
1699
1719
1737
1740
1776
1906
2240
2733
3235
3643
3599
3351
2914
2546
2207
1923
1723
1526
1397
1309
1271
1281
1323
1373
1445
1488
1493
1487
1476
1445
1442
1436
1440
1461
1487
1503
1535
1581
1616
1648
1671
1711
1720
1726
1754
1765
1840
2065
2503
3015
3458
3653
3439
3094
2727
2361
2069
1841
1664
1489
1396
1331
1297
1331
1359
1397
1494
1507
1513
1501
1495
1471
1473
1471
1489
1505
1520
1555
1591
1619
1653
1669
1715
1732
1745
1764
1793
1767
1839
2026
2411
2893
3401
3531
3360
3035
2711
2399
2096
1861
1674
1525
1399
1360
1355
1398
1442
1520
1585
1600
1584
1575
1531
1477
1472
1461
1500
1509
1570
1618
1644
1645
1673
1712
1712
1746
1747
1767
1813
2007
2423
2961
3524
3842
3707
3309
2855
2457
2129
1892
1643
1483
1355
1273
1235
1259
1322
1374
1456
1479
1482
1457
1442
1425
1433
1419
1430
1437
1473
1503
1521
1582
1604
1642
1667
1682
1707
1728
1743
1764
1802
1850
2122
2559
3139
3582
3698
3486
3131
2722
2368
2084
1817
1600
1477
1351
1293
1282
1287
1333
1408
1483
1499
1494
1515
1485
1467
1456
1472
1491
1495
1518
1553
1596
1615
1653
1678
1694
1712
1744
1773
1775
1778
1818
1859
2013
2369
2831
3221
3347
3197
2881
2602
2336
2086
1851
1694
1535
1464
1409
1424
1449
1499
1589
1619
1630
1630
1603
1594
1535
1513
1516
1533
1579
1648
1665
1665
1683
1712
1722
1741
1762
1754
1797
1903
2167
2589
2995
3267
3249
3051
2767
2493
2210
1969
1790
1631
1520
1450
1408
1406
1442
1495
1579
1600
1604
1586
1573
1558
1506
1488
1497
1514
1561
1601
1647
1651
1669
1706
1739
1725
1755
1775
1767
1786
1803
1883
2110
2533
2986
3387
3488
3299
2983
2665
2357
2096
1854
1679
1529
1443
1374
1375
1392
1450
1488
1535
1585
1576
1535
1535
1520
1515
1520
1517
1522
1564
1579
1605
1631
1648
1680
1709
1726
1744
1764
1781
1791
1904
2125
2542
3007
3403
3495
3274
2975
2643
2345
2055
1845
1671
1520
1418
1378
1375
1383
1424
1489
1535
1567
1535
1535
1528
1509
1501
1494
1502
1531
1533
1567
1607
1627
1665
1683
1710
1747
1770
1779
1786
1811
1829
1917
2164
2581
3015
3323
3329
3058
2806
2526
2263
2010
1818
1657
1535
1447
1424
1408
1453
1488
1557
1615
1631
1616
1591
1585
1579
1561
1571
1568
1585
1617
1634
1679
1694
1712
1735
1755
1782
1789
1808
1840
1968
2273
2678
3089
3283
3180
2950
2678
2399
2145
1920
1737
1598
1491
1429
1419
1424
1473
1531
1616
1648
1623
1610
1605
1568
1534
1534
1535
1560
1613
1643
1657
1680
1712
1740
1755
1771
1783
1795
1798
1843
1975
2293
2727
3152
3378
3290
3038
2753
2461
2179
1943
1753
1603
1491
1436
1401
1409
1449
1489
1583
1614
1600
1586
1589
1557
1507
1506
1499
1520
1579
1621
1634
1677
1703
1717
1723
1760
1779
1785
1797
1797
1833
1840
1842
1905
2099
2475
2951
3385
3538
3364
3029
2735
2423
2143
1904
1719
1584
1470
1415
1380
1405
1431
1483
1573
1587
1598
1570
1559
1535
1530
1531
1535
1535
1555
1594
1611
1648
1663
1696
1715
1737
1759
1766
1798
1777
1837
1841
1840
1886
2031
2341
2768
3184
3344
3231
2945
2671
2410
2187
1936
1769
1625
1522
1467
1449
1442
1497
1535
1636
1667
1670
1662
1637
1622
1567
1563
1583
1599
1618
1674
1683
1709
1735
1748
1767
1780
1791
1819
1814
1817
1865
2000
2345
2781
3203
3417
3299
3036
2755
2452
2170
1949
1757
1594
1488
1407
1399
1419
1475
1520
1589
1623
1635
1616
1586
1577
1517
1514
1520
1535
1610
1628
1653
1697
1717
1729
1752
1774
1805
1799
1821
1818
1837
1937
2215
2662
3184
3570
3606
3367
3023
2652
2319
2032
1808
1625
1483
1392
1334
1324
1338
1389
1454
1534
1535
1530
1523
1507
1485
1502
1495
1493
1514
1530
1572
1594
1622
1649
1686
1726
1731
1756
1774
1789
1811
1812
1875
2059
2422
2879
3287
3401
3239
2934
2642
2352
2112
1872
1699
1575
1486
1425
1422
1455
1510
1591
1635
1662
1663
1631
1611
1586
1535
1535
1554
1568
1623
1652
1678
1700
1717
1743
1769
1763
1797
1808
1839
1963
2278
2735
3239
3495
3457
3187
2878
2497
2192
1936
1748
1591
1466
1392
1369
1369
1408
1461
1535
1569
1578
1559
1533
1517
1465
1459
1470
1501
1535
1587
1609
1630
1666
1690
1721
1744
1756
1763
1783
1804
1894
2118
2545
3086
3554
3675
3511
3136
2735
2378
2090
1858
1664
1519
1410
1357
1328
1338
1380
1433
1504
1535
1533
1520
1505
1488
1479
1473
1478
1490
1520
1535
1581
1603
1633
1670
1711
1717
1741
1762
1775
1825
1979
2326
2774
3248
3479
3397
3117
2791
2454
2160
1911
1718
1570
1467
1401
1375
1395
1434
1477
1588
1599
1602
1569
1563
1520
1471
1482
1495
1517
1579
1606
1633
1644
1676
1691
1715
1731
1750
1793
1990
2360
2896
3419
3724
3659
3271
2851
2467
2155
1895
1684
1510
1392
1318
1279
1312
1345
1410
1483
1495
1490
1473
1459
1439
1388
1386
1398
1427
1490
1520
1535
1597
1627
1658
1674
1710
1734
1760
1933
2256
2794
3381
3818
3851
3483
2991
2587
2247
1969
1750
1559
1411
1314
1264
1244
1296
1337
1392
1479
1472
1435
1423
1408
1402
1406
1410
1420
1452
1476
1511
1535
1584
1619
1658
1679
1712
1726
1751
1851
2119
2586
3135
3619
3664
3454
3031
2657
2298
2025
1786
1616
1455
1361
1312
1316
1367
1411
1473
1506
1519
1529
1498
1466
1411
1410
1421
1424
1495
1530
1535
1585
1625
1648
1676
1682
1709
1719
1780
1952
2366
2914
3575
3979
3920
3473
2949
2544
2206
1925
1697
1499
1360
1262
1253
1250
1305
1342
1391
1439
1451
1410
1399
1378
1311
1342
1363
1378
1440
1462
1500
1535
1575
1616
1645
1671
1688
1712
1725
1794
2002
2466
3033
3717
4079
3954
3472
2926
2501
2158
1875
1654
1463
1318
1238
1195
1210
1243
1321
1382
1422
1407
1417
1395
1371
1377
1383
1383
1399
1434
1465
1515
1535
1535
1615
1645
1672
1702
1737
1875
2224
2734
3289
3695
3703
3350
2892
2497
2206
1936
1723
1527
1387
1309
1285
1306
1351
1411
1486
1503
1485
1465
1409
1383
1375
1373
1392
1442
1489
1521
1554
1584
1623
1661
1670
1686
1722
1827
2170
2713
3447
4095
4095
3938
3307
2751
2347
2015
1733
1535
1353
1237
1178
1158
1202
1262
1302
1362
1377
1356
1351
1332
1309
1336
1342
1360
1385
1418
1466
1508
1531
1571
1600
1630
1660
1680
1744
1943
2395
3000
3745
4095
4063
3543
2951
2513
2169
1869
1633
1415
1293
1194
1146
1165
1215
1249
1305
1366
1360
1381
1331
1311
1325
1331
1359
1369
1412
1436
1488
1521
1557
1595
1633
1648
1665
1726
1872
2267
2860
3568
4051
4015
3550
2989
2557
2179
1886
1647
1434
1286
1201
1170
1198
1246
1323
1365
1392
1389
1375
1323
1286
1265
1282
1330
1351
1389
1443
1477
1507
1558
1584
1626
1638
1663
1680
1774
2001
2500
3179
3934
4095
4077
3462
2870
2438
2091
1786
1571
1375
1232
1141
1109
1139
1179
1251
1322
1355
1328
1314
1312
1303
1291
1306
1346
1364
1381
1424
1479
1510
1535
1594
1632
1662
1680
1690
1725
1794
1996
2422
2961
3437
3611
3370
2999
2642
2311
2000
1772
1600
1441
1344
1296
1285
1338
1399
1475
1530
1522
1499
1491
1435
1410
1404
1418
1455
1506
1535
1565
1589
1613
1649
1679
1702
1710
1743
1879
2241
2742
3265
3583
3506
3215
2813
2444
2127
1855
1665
1487
1370
1293
1266
1278
1328
1397
1472
1488
1476
1454
1445
1394
1382
1385
1399
1437
1493
1520
1554
1574
1619
1647
1687
1700
1719
1723
1771
1954
2379
2975
3677
4095
4004
3482
2944
2499
2159
1862
1651
1471
1328
1238
1213
1223
1279
1328
1371
1403
1395
1389
1361
1303
1284
1309
1314
1375
1411
1450
1478
1513
1535
1569
1593
1642
1787
2145
2691
3285
3731
3779
3363
2870
2486
2145
1872
1644
1456
1317
1242
1199
1209
1260
1303
1373
1411
1423
1395
1381
1369
1366
1369
1369
1393
1430
1457
1485
1505
1557
1598
1698
1972
2432
2915
3366
3483
3311
2934
2559
2246
1994
1778
1584
1412
1305
1259
1234
1278
1314
1353
1438
1441
1427
1414
1405
1378
1386
1393
1419
1435
1459
1488
1529
1575
1613
1633
1715
1921
2339
2819
3205
3365
3221
2910
2559
2256
2000
1779
1597
1439
1343
1296
1296
1346
1419
1497
1527
1521
1507
1498
1456
1405
1408
1438
1446
1501
1535
1565
1600
1615
1631
1669
1782
2071
2580
3119
3517
3631
3341
2901
2531
2206
1936
1714
1520
1374
1311
1275
1297
1353
1415
1475
1485
1470
1426
1355
1329
1321
1343
1343
1382
1431
1470
1493
1519
1561
1584
1597
1648
1767
2096
2657
3358
4018
4095
3840
3223
2714
2325
2015
1760
1535
1353
1224
1152
1145
1173
1231
1271
1305
1301
1269
1253
1248
1247
1237
1247
1295
1358
1381
1424
1443
1477
1517
1535
1560
1583
1650
1867
2337
2948
3626
3930
3775
3316
2818
2435
2105
1835
1591
1392
1251
1168
1149
1169
1233
1269
1330
1354
1355
1325
1311
1294
1295
1312
1314
1347
1393
1425
1477
1535
1558
1590
1636
1658
1683
1706
1721
1776
1927
2320
2919
3618
3979
3798
3354
2871
2480
2128
1842
1639
1440
1315
1253
1254
1296
1373
1439
1485
1471
1451
1407
1344
1332
1337
1341
1355
1402
1444
1481
1520
1559
1584
1620
1627
1647
1677
1687
1817
2173
2754
3437
3980
4030
3634
3088
2617
2246
1946
1699
1475
1306
1200
1174
1163
1205
1262
1312
1354
1374
1328
1328
1267
1257
1263
1287
1351
1389
1419
1467
1500
1535
1600
1616
1643
1670
1683
1725
1729
1771
1917
2319
2886
3541
3907
3731
3282
2854
2459
2128
1850
1636
1454
1339
1264
1242
1265
1346
1419
1485
1484
1459
1440
1392
1351
1354
1351
1366
1415
1475
1497
1522
1558
1589
1616
1637
1674
1678
1714
1859
2269
2845
3536
4042
3981
3531
3024
2582
2222
1904
1665
1459
1286
1201
1158
1190
1233
1313
1374
1390
1377
1366
1298
1281
1277
1262
1303
1344
1404
1439
1465
1495
1535
1573
1616
1619
1665
1680
1702
1737
1749
1754
1778
1805
1984
2397
3063
3871
4095
4095
3568
3017
2608
2226
1915
1650
1446
1300
1207
1167
1172
1231
1283
1360
1402
1387
1378
1358
1289
1282
1287
1322
1383
1408
1446
1487
1535
1563
1591
1627
1653
1690
1699
1723
1740
1751
1760
1790
1849
2098
2586
3261
3952
4064
3760
3222
2758
2375
2058
1790
1564
1387
1272
1232
1215
1270
1326
1393
1457
1446
1433
1395
1336
1328
1310
1328
1346
1421
1451
1484
1529
1553
1586
1617
1648
1664
1696
1713
1741
1744
1744
1773
1835
2046
2512
3127
3753
3935
3665
3185
2753
2393
2096
1818
1626
1434
1315
1262
1216
1243
1283
1355
1429
1457
1442
1424
1414
1387
1390
1393
1395
1422
1450
1489
1520
1552
1613
1629
1669
1694
1706
1733
1746
1759
1778
1805
1904
2161
2650
3248
3658
3675
3325
2905
2535
2238
1959
1741
1570
1408
1313
1291
1296
1350
1413
1488
1535
1533
1498
1467
1418
1395
1394
1405
1430
1511
1535
1535
1594
1617
1645
1667
1683
1731
1730
1747
1744
1781
1841
2091
2555
3118
3603
3697
3429
3017
2674
2346
2037
1798
1607
1442
1329
1280
1263
1268
1321
1382
1453
1479
1488
1467
1439
1425
1426
1414
1437
1459
1492
1514
1535
1586
1621
1649
1683
1699
1712
1751
1755
1771
1786
1795
1857
2084
2486
2983
3419
3479
3245
2895
2558
2262
2007
1812
1629
1495
1411
1362
1380
1415
1462
1535
1586
1590
1571
1563
1505
1485
1467
1486
1488
1524
1576
1601
1635
1643
1667
1692
1722
1726
1741
1747
1783
1933
2247
2734
3235
3538
3459
3143
2785
2476
2165
1905
1694
1520
1403
1329
1305
1328
1360
1422
1482
1526
1531
1511
1480
1473
1422
1424
1423
1458
1506
1535
1577
1616
1648
1663
1694
1717
1728
1749
1762
1767
1791
1871
2134
2599
3125
3518
3529
3241
2891
2559
2288
2005
1791
1626
1473
1370
1312
1301
1335
1399
1470
1517
1535
1506
1488
1486
1474
1462
1465
1475
1502
1526
1571
1615
1619
1648
1680
1708
1721
1751
1771
1817
2010
2402
2896
3344
3495
3295
2970
2640
2323
2047
1816
1632
1485
1392
1339
1349
1372
1426
1506
1535
1573
1531
1520
1455
1437
1425
1440
1451
1516
1535
1586
1606
1628
1659
1680
1699
1725
1735
1774
1907
2279
2784
3365
3715
3682
3354
2924
2555
2210
1939
1727
1535
1392
1302
1258
1276
1299
1353
1379
1437
1442
1433
1420
1390
1381
1390
1395
1409
1440
1478
1503
1531
1575
1616
1641
1680
1685
1711
1799
2090
2559
3138
3575
3647
3380
3006
2625
2293
2001
1792
1602
1426
1342
1285
1271
1281
1329
1389
1429
1456
1452
1424
1411
1415
1398
1411
1431
1469
1495
1535
1571
1607
1647
1663
1701
1713
1729
1817
2047
2539
3124
3696
3856
3583
3152
2720
2347
2025
1786
1617
1454
1305
1243
1231
1282
1312
1366
1414
1435
1419
1373
1379
1317
1307
1323
1357
1423
1459
1491
1527
1570
1606
1622
1651
1677
1693
1719
1787
2062
2559
3289
4094
4095
4067
3501
2915
2490
2114
1833
1601
1398
1237
1142
1118
1130
1166
1216
1258
1260
1260
1264
1246
1261
1261
1274
1326
1369
1386
1429
1479
1511
1535
1583
1610
1640
1658
1694
1712
1789
2084
2612
3306
3984
4089
3731
3182
2746
2366
2036
1765
1535
1359
1234
1200
1189
1218
1270
1344
1395
1407
1371
1355
1338
1306
1285
1328
1363
1413
1445
1466
1487
1535
1573
1613
1647
1665
1679
1757
2027
2559
3328
4095
4095
4095
3459
2893
2455
2095
1786
1526
1331
1199
1116
1088
1119
1173
1226
1280
1299
1283
1264
1249
1254
1251
1263
1280
1299
1341
1397
1436
1483
1524
1564
1598
1638
1648
1669
1695
1716
1746
1799
2029
2558
3386
4095
4095
4095
3699
3059
2589
2182
1856
1583
1360
1201
1118
1059
1062
1114
1168
1214
1274
1289
1271
1261
1245
1251
1243
1281
1307
1347
1392
1424
1474
1517
1561
1597
1638
1648
1673
1715
1737
1738
1753
1807
1959
2373
3030
3860
4095
4083
3472
2922
2496
2165
1891
1643
1455
1314
1222
1184
1221
1264
1317
1409
1421
1411
1392
1344
1302
1306
1303
1317
1377
1434
1456
1488
1525
1567
1595
1617
1666
1680
1698
1720
1722
1751
1834
2149
2715
3551
4095
4095
4066
3362
2827
2391
2058
1762
1519
1319
1185
1114
1093
1127
1181
1243
1319
1335
1314
1299
1275
1263
1264
1285
1294
1327
1367
1407
1451
1501
1529
1571
1614
1623
1658
1681
1708
1731
1744
1776
1901
2271
2891
3721
4095
4095
3684
3088
2625
2243
1935
1695
1475
1301
1197
1145
1141
1190
1255
1340
1391
1402
1373
1350
1328
1271
1290
1306
1354
1408
1437
1471
1505
1573
1562
1616
1648
1671
1691
1709
1737
1765
1866
2147
2677
3397
4015
4089
3623
3057
2611
2242
1936
1696
1507
1360
1249
1200
1210
1267
1326
1409
1458
1456
1428
1399
1353
1321
1325
1335
1351
1424
1456
1493
1535
1583
1620
1638
1653
1675
1709
1726
1836
2157
2738
3468
4095
4095
3737
3150
2705
2324
1988
1715
1483
1321
1204
1127
1133
1153
1218
1287
1349
1357
1345
1335
1312
1303
1295
1316
1327
1361
1390
1430
1471
1518
1535
1587
1616
1644
1674
1707
1717
1763
1907
2259
2870
3648
4081
3918
3424
2943
2550
2191
1893
1653
1462
1307
1210
1166
1189
1248
1298
1396
1425
1424
1415
1397
1378
1369
1355
1366
1381
1413
1457
1491
1535
1575
1597
1635
1664
1690
1696
1714
1757
1897
2255
2822
3509
4021
3973
3504
3027
2604
2253
1933
1678
1460
1314
1215
1163
1177
1230
1285
1349
1367
1406
1367
1367
1334
1303
1285
1310
1352
1415
1454
1486
1518
1568
1606
1623
1655
1669
1697
1723
1730
1751
1850
2111
2617
3248
3792
3863
3520
3059
2663
2321
2011
1747
1535
1387
1273
1217
1194
1232
1286
1341
1412
1427
1444
1408
1392
1382
1370
1383
1409
1425
1428
1494
1535
1571
1598
1631
1648
1680
1712
1738
1746
1775
1889
2207
2717
3310
3698
3632
3250
2851
2512
2192
1905
1675
1495
1365
1280
1254
1279
1328
1405
1470
1488
1484
1463
1434
1389
1390
1391
1383
1426
1475
1522
1535
1600
1598
1632
1667
1669
1712
1715
1739
1769
1881
2187
2701
3265
3738
3713
3378
2947
2601
2245
1953
1718
1520
1383
1278
1226
1225
1247
1312
1365
1427
1434
1425
1426
1406
1390
1393
1401
1426
1436
1483
1511
1535
1584
1618
1646
1686
1689
1719
1730
1743
1776
1783
1781
1955
2307
2819
3292
3581
3385
3011
2667
2343
2077
1855
1658
1522
1410
1333
1315
1335
1392
1484
1533
1535
1535
1534
1499
1444
1447
1439
1457
1486
1535
1568
1588
1627
1648
1684
1702
1713
1744
1749
1776
1769
1785
1855
2111
2542
3069
3505
3549
3283
2919
2581
2285
1998
1773
1584
1434
1354
1298
1279
1333
1389
1468
1517
1521
1533
1493
1491
1482
1461
1477
1475
1491
1520
1558
1584
1618
1641
1662
1685
1717
1746
1754
1775
1779
1803
1793
1814
1929
2219
2695
3223
3547
3440
3097
2749
2420
2146
1918
1723
1535
1447
1363
1333
1351
1374
1429
1520
1535
1574
1568
1535
1516
1503
1459
1475
1495
1570
1601
1612
1635
1655
1693
1702
1729
1747
1757
1781
1789
1796
1800
1861
2078
2475
2928
3285
3306
3027
2707
2428
2141
1930
1763
1643
1517
1456
1424
1424
1470
1535
1625
1653
1645
1621
1605
1535
1519
1527
1531
1554
1601
1636
1654
1682
1728
1739
1745
1763
1763
1776
1790
1828
2014
2400
2911
3353
3518
3344
3030
2679
2384
2095
1868
1661
1520
1398
1339
1329
1345
1382
1417
1488
1515
1530
1510
1499
1498
1488
1472
1505
1519
1535
1580
1599
1651
1658
1685
1717
1744
1759
1776
1815
1999
2373
2832
3207
3293
3088
2785
2500
2218
1987
1766
1631
1506
1427
1371
1371
1419
1504
1585
1638
1664
1645
1614
1611
1532
1523
1535
1535
1563
1616
1647
1676
1683
1694
1721
1742
1802
1982
2385
2913
3438
3661
3490
3137
2713
2352
2043
1785
1605
1446
1328
1263
1262
1264
1303
1360
1440
1450
1455
1447
1451
1429
1446
1435
1459
1467
1499
1531
1569
1611
1647
1677
1701
1721
1744
1756
1829
2085
2541
3107
3578
3697
3442
3030
2649
2310
2002
1769
1596
1459
1343
1294
1265
1276
1331
1379
1466
1495
1491
1487
1478
1456
1456
1424
1472
1481
1502
1535
1577
1611
1666
1661
1686
1723
1728
1757
1776
1907
2224
2713
3223
3503
3411
3071
2713
2410
2126
1883
1686
1525
1428
1367
1334
1354
1419
1466
1535
1561
1564
1527
1515
1459
1447
1449
1467
1497
1564
1593
1600
1629
1649
1680
1703
1740
1745
1807
2015
2417
3014
3539
3733
3506
3103
2719
2377
2067
1821
1609
1451
1328
1268
1249
1274
1328
1371
1423
1453
1431
1433
1408
1407
1403
1397
1425
1434
1471
1515
1562
1584
1616
1645
1669
1685
1730
1757
1865
2167
2668
3225
3631
3611
3285
2878
2533
2207
1941
1730
1535
1407
1307
1255
1257
1278
1344
1392
1437
1466
1442
1421
1411
1415
1422
1424
1447
1456
1489
1533
1557
1595
1622
1663
1695
1702
1721
1799
1979
2387
2917
3350
3466
3229
2864
2531
2229
1994
1827
1649
1502
1429
1377
